timestamp,elapsed_s,MLII,V1
2000-01-01 00:00:00.000000000,0.0,0.0916455759162493,0.5257362080121213
2000-01-01 00:00:00.019444444,0.0194444444444444,0.0916455759162493,0.5257362080121213
2000-01-01 00:00:00.038888888,0.0388888888888888,-0.1167478428106102,0.6005302728916043
2000-01-01 00:00:00.058333333,0.0583333333333333,-0.0948116934709407,0.6566258215512166
2000-01-01 00:00:00.077777777,0.0777777777777777,-0.1386839921502796,0.7688169188704412
2000-01-01 00:00:00.097222222,0.0972222222222222,-0.2154605148391226,0.9184050486294072
2000-01-01 00:00:00.116666666,0.1166666666666666,1.7368567763914569,-0.8392554760384444
2000-01-01 00:00:00.136111111,0.1361111111111111,3.1298022594604658,-0.633571797619866
2000-01-01 00:00:00.155555555,0.1555555555555555,-0.2373966641787921,0.3387510458134136
2000-01-01 00:00:00.175000000,0.175,-0.3251412615374698,0.7127213702108289
2000-01-01 00:00:00.194444444,0.1944444444444444,-0.3690135602168087,0.787515435090312
2000-01-01 00:00:00.213888888,0.2138888888888889,-0.3909497095564781,0.787515435090312
2000-01-01 00:00:00.233333333,0.2333333333333333,-0.3799816348866434,0.6940228539909581
2000-01-01 00:00:00.252777777,0.2527777777777777,-0.4128858588961475,0.6940228539909581
2000-01-01 00:00:00.272222222,0.2722222222222222,-0.3361093362073045,0.619228789111475
2000-01-01 00:00:00.291666666,0.2916666666666667,-0.2483647388486268,0.5257362080121213
2000-01-01 00:00:00.311111111,0.3111111111111111,-0.0728755441312713,0.3761480782531551
2000-01-01 00:00:00.330555555,0.3305555555555555,0.0806775012464146,0.0956703349550937
2000-01-01 00:00:00.350000000,0.35,0.2122943972844312,-0.0352192785840016
2000-01-01 00:00:00.369444444,0.3694444444444444,0.2122943972844312,0.1330673673948352
2000-01-01 00:00:00.388888888,0.3888888888888889,0.0587413519067452,0.5070376917922506
2000-01-01 00:00:00.408333333,0.4083333333333333,-0.1057797681407755,0.787515435090312
2000-01-01 00:00:00.427777777,0.4277777777777778,-0.1935243654994532,0.9184050486294072
2000-01-01 00:00:00.447222222,0.4472222222222222,-0.2483647388486268,0.8810080161896657
2000-01-01 00:00:00.466666666,0.4666666666666667,-0.2703008881882962,0.862309499969795
2000-01-01 00:00:00.486111111,0.4861111111111111,-0.2483647388486268,0.8062139513101827
2000-01-01 00:00:00.505555555,0.5055555555555555,-0.1715882161597837,0.862309499969795
2000-01-01 00:00:00.525000000,0.525,0.1793901732749271,0.4322436269127674
2000-01-01 00:00:00.544444444,0.5444444444444445,1.2323253415790598,-1.1010347031166352
2000-01-01 00:00:00.563888888,0.5638888888888889,2.669143123327407,-2.8960922602242283
2000-01-01 00:00:00.583333333,0.5833333333333334,3.996280158377408,-3.400952198160739
2000-01-01 00:00:00.602777777,0.6027777777777777,2.9433449900732755,-1.119733219336506
2000-01-01 00:00:00.622222222,0.6222222222222222,2.2962285845530275,-0.3343955381019338
2000-01-01 00:00:00.641666666,0.6416666666666667,0.1684220986050923,0.4322436269127674
2000-01-01 00:00:00.661111111,0.6611111111111111,-1.0709703390862304,1.5541546001050133
2000-01-01 00:00:00.680555555,0.6805555555555556,-1.2903318324829247,1.815933827183204
2000-01-01 00:00:00.700000000,0.7,-1.476789101870115,2.0590145380415237
2000-01-01 00:00:00.719444444,0.7194444444444444,-1.6632463712573051,2.302095248899844
2000-01-01 00:00:00.738888888,0.7388888888888889,-1.827767491304826,2.6386685408575175
2000-01-01 00:00:00.758333333,0.7583333333333333,-1.937448238003173,2.900447767935708
2000-01-01 00:00:00.777777777,0.7777777777777778,-1.849703640644495,2.7134626057370004
2000-01-01 00:00:00.797222222,0.7972222222222223,-1.6632463712573051,2.133808602921007
2000-01-01 00:00:00.816666666,0.8166666666666667,-1.202587235124247,1.4045664703460472
2000-01-01 00:00:00.836111111,0.8361111111111111,-0.7199919496515196,1.0118976297287612
2000-01-01 00:00:00.855555555,0.8555555555555556,-0.51159853092466,0.9184050486294072
2000-01-01 00:00:00.875000000,0.875,-0.4238539335659823,0.9184050486294072
2000-01-01 00:00:00.894444444,0.8944444444444445,-0.4786943069151558,0.8997065324095366
2000-01-01 00:00:00.913888888,0.9138888888888888,-0.4896623815849905,0.8997065324095366
2000-01-01 00:00:00.933333333,0.9333333333333332,-0.4567581575754864,0.8249124675300534
2000-01-01 00:00:00.952777777,0.9527777777777778,-0.3799816348866434,0.7314198864306997
2000-01-01 00:00:00.972222222,0.9722222222222222,-0.3251412615374698,0.7688169188704412
2000-01-01 00:00:00.991666666,0.9916666666666668,-0.2922370375279656,0.7314198864306997
2000-01-01 00:00:01.011111111,1.011111111111111,-0.2483647388486268,0.7688169188704412
2000-01-01 00:00:01.030555555,1.0305555555555557,-0.2703008881882962,0.7314198864306997
2000-01-01 00:00:01.050000000,1.05,-0.2922370375279656,0.6753243377710874
2000-01-01 00:00:01.069444444,1.0694444444444444,-0.3141731868676351,0.5818317566717336
2000-01-01 00:00:01.088888888,1.088888888888889,-0.2922370375279656,0.6566258215512166
2000-01-01 00:00:01.108333333,1.1083333333333334,-0.2154605148391226,0.6753243377710874
2000-01-01 00:00:01.127777777,1.1277777777777778,-0.1825562908296185,0.7127213702108289
2000-01-01 00:00:01.147222222,1.147222222222222,-0.2264285895089573,0.6379273053313459
2000-01-01 00:00:01.166666666,1.1666666666666667,-0.2483647388486268,0.6005302728916043
2000-01-01 00:00:01.186111111,1.1861111111111111,-0.1386839921502796,0.6379273053313459
2000-01-01 00:00:01.205555555,1.2055555555555555,0.1245497999257535,0.7314198864306997
2000-01-01 00:00:01.225000000,1.225,0.1684220986050923,0.5257362080121213
2000-01-01 00:00:01.244444444,1.2444444444444445,-0.1277159174804449,0.5070376917922506
2000-01-01 00:00:01.263888888,1.2638888888888888,-0.2373966641787921,0.5818317566717336
2000-01-01 00:00:01.283333333,1.2833333333333334,-0.2922370375279656,0.544434724231992
2000-01-01 00:00:01.302777777,1.3027777777777778,-0.2264285895089573,0.5070376917922506
2000-01-01 00:00:01.322222222,1.3222222222222222,0.1355178745955882,0.3013540133736721
2000-01-01 00:00:01.341666666,1.3416666666666668,3.5356210222443503,-0.3343955381019338
2000-01-01 00:00:01.361111111,1.3611111111111112,-0.0728755441312713,0.2078614322743183
2000-01-01 00:00:01.380555555,1.3805555555555555,-0.2703008881882962,0.619228789111475
2000-01-01 00:00:01.400000000,1.4,-0.3580454855469739,0.6566258215512166
2000-01-01 00:00:01.419444444,1.4194444444444445,-0.3361093362073045,0.619228789111475
2000-01-01 00:00:01.438888888,1.4388888888888889,-0.3032051121978004,0.6379273053313459
2000-01-01 00:00:01.458333333,1.4583333333333333,-0.2264285895089573,0.6005302728916043
2000-01-01 00:00:01.477777777,1.477777777777778,-0.1496520668201143,0.544434724231992
2000-01-01 00:00:01.497222222,1.4972222222222222,-0.1057797681407755,0.3761480782531551
2000-01-01 00:00:01.516666666,1.5166666666666666,0.0587413519067452,0.1330673673948352
2000-01-01 00:00:01.536111111,1.5361111111111112,0.2890709199732743,-0.2222044407827092
2000-01-01 00:00:01.555555555,1.5555555555555556,0.5194004880398033,-0.4278881192012876
2000-01-01 00:00:01.575000000,1.575,0.6948896827571588,-0.4091896029814169
2000-01-01 00:00:01.594444444,1.5944444444444446,0.6290812347381505,-0.0726163110237431
2000-01-01 00:00:01.613888888,1.613888888888889,0.2781028453034395,0.3948465944730259
2000-01-01 00:00:01.633333333,1.6333333333333333,-0.0290032454519324,0.7127213702108289
2000-01-01 00:00:01.652777777,1.652777777777778,-0.1825562908296185,0.787515435090312
2000-01-01 00:00:01.672222222,1.6722222222222225,-0.1715882161597837,0.9184050486294072
2000-01-01 00:00:01.691666666,1.6916666666666669,-0.1715882161597837,0.9558020810691488
2000-01-01 00:00:01.711111111,1.7111111111111112,-0.1167478428106102,0.8997065324095366
2000-01-01 00:00:01.730555555,1.7305555555555556,-0.1825562908296185,0.8249124675300534
2000-01-01 00:00:01.750000000,1.75,-0.2264285895089573,0.7314198864306997
2000-01-01 00:00:01.769444444,1.7694444444444444,-0.160620141489949,0.8062139513101827
2000-01-01 00:00:01.788888888,1.788888888888889,0.0697094265765799,0.8249124675300534
2000-01-01 00:00:01.808333333,1.8083333333333331,0.2013263226145965,0.6005302728916043
2000-01-01 00:00:01.827777777,1.8277777777777775,0.0148690532274063,0.6566258215512166
2000-01-01 00:00:01.847222222,1.8472222222222223,-0.2373966641787921,0.8810080161896657
2000-01-01 00:00:01.866666666,1.8666666666666667,0.2451986212939354,0.0395747862954814
2000-01-01 00:00:01.886111111,1.886111111111111,1.3968464616265803,-2.20424716008901
2000-01-01 00:00:01.905555555,1.9055555555555557,2.383973181911705,-3.849716587437637
2000-01-01 00:00:01.925000000,1.925,3.842727112999722,-4.541561687572855
2000-01-01 00:00:01.944444444,1.9444444444444444,4.127897054415425,-2.372533806067847
2000-01-01 00:00:01.963888888,1.963888888888889,-0.2593328135184615,0.7688169188704412
2000-01-01 00:00:01.983333333,1.9833333333333336,-0.8735449950292056,1.3671694379063055
2000-01-01 00:00:02.002777777,2.0027777777777778,-1.0161299657370568,1.5354560838851423
2000-01-01 00:00:02.022222222,2.022222222222222,-1.0270980404068917,1.7411397623037208
2000-01-01 00:00:02.041666666,2.0416666666666665,-1.1038745630957347,2.021617505601782
2000-01-01 00:00:02.061111111,2.0611111111111113,-1.246459533803586,2.3768893137793268
2000-01-01 00:00:02.080555555,2.0805555555555557,-1.4109806538511067,2.6573670570773884
2000-01-01 00:00:02.100000000,2.1,-1.4877571765399498,2.8630507354959667
2000-01-01 00:00:02.119444444,2.1194444444444445,-1.4987252512097844,2.8630507354959667
2000-01-01 00:00:02.138888888,2.138888888888889,-1.246459533803586,2.507778927318422
2000-01-01 00:00:02.158333333,2.158333333333333,-0.895481144368875,1.8907278920626869
2000-01-01 00:00:02.177777777,2.177777777777778,-0.5445027549341641,1.311073889246693
2000-01-01 00:00:02.197222222,2.1972222222222224,-0.4457900829056517,0.9931991135088905
2000-01-01 00:00:02.216666666,2.216666666666667,-0.4896623815849905,0.8810080161896657
2000-01-01 00:00:02.236111111,2.236111111111111,-0.4677262322453211,0.862309499969795
2000-01-01 00:00:02.255555555,2.2555555555555555,-0.4348220082358169,0.8810080161896657
2000-01-01 00:00:02.275000000,2.275,-0.3799816348866434,0.937103564849278
2000-01-01 00:00:02.294444444,2.2944444444444443,-0.4019177842263128,0.937103564849278
2000-01-01 00:00:02.313888888,2.313888888888889,-0.3251412615374698,0.8062139513101827
2000-01-01 00:00:02.333333333,2.3333333333333335,0.2013263226145965,-0.0913148272436139
2000-01-01 00:00:02.352777777,2.352777777777778,1.879441747099308,-2.5595189682665547
2000-01-01 00:00:02.372222222,2.3722222222222222,3.0201215127621186,-3.457047746820351
2000-01-01 00:00:02.391666666,2.3916666666666666,2.449781629930713,-1.1945272842159889
2000-01-01 00:00:02.411111111,2.411111111111111,2.2852605098831926,-0.0913148272436139
2000-01-01 00:00:02.430555555,2.430555555555556,0.9800596241728614,0.2639569809339306
2000-01-01 00:00:02.450000000,2.45,-0.7199919496515196,1.254978340587081
2000-01-01 00:00:02.469444444,2.469444444444445,-1.2354914591337511,1.666345697424238
2000-01-01 00:00:02.488888888,2.488888888888889,-1.4329168031907762,1.815933827183204
2000-01-01 00:00:02.508333333,2.5083333333333333,-1.6084059979081315,1.9842204731620408
2000-01-01 00:00:02.527777777,2.5277777777777777,-1.8058313419651564,2.189904151580619
2000-01-01 00:00:02.547222222,2.547222222222222,-2.04712898470152,2.432984862438939
2000-01-01 00:00:02.566666666,2.566666666666667,-2.178745880739537,2.3207937651197144
2000-01-01 00:00:02.586111111,2.5861111111111112,-2.091001283380859,2.021617505601782
2000-01-01 00:00:02.605555555,2.6055555555555556,-1.6632463712573051,1.5541546001050133
2000-01-01 00:00:02.625000000,2.625,-1.1148426377655694,1.1614857594877273
2000-01-01 00:00:02.644444444,2.6444444444444444,-0.7419280989911891,0.9558020810691488
2000-01-01 00:00:02.663888888,2.6638888888888888,-0.6541835016325113,0.8997065324095366
2000-01-01 00:00:02.683333333,2.6833333333333336,-0.6980558003118501,0.8997065324095366
2000-01-01 00:00:02.702777777,2.702777777777778,-0.6322473522928419,0.787515435090312
2000-01-01 00:00:02.722222222,2.7222222222222223,-0.5664389042738336,0.8436109837499243
2000-01-01 00:00:02.741666666,2.7416666666666667,-0.4786943069151558,0.8062139513101827
2000-01-01 00:00:02.761111111,2.761111111111111,-0.4457900829056517,0.8062139513101827
2000-01-01 00:00:02.780555555,2.780555555555555,-0.51159853092466,0.6940228539909581
2000-01-01 00:00:02.800000000,2.8,-0.4238539335659823,0.6005302728916043
2000-01-01 00:00:02.819444444,2.8194444444444446,-0.3580454855469739,0.6566258215512166
2000-01-01 00:00:02.838888888,2.838888888888889,-0.3799816348866434,0.619228789111475
2000-01-01 00:00:02.858333333,2.8583333333333334,-0.3470774108771392,0.6005302728916043
2000-01-01 00:00:02.877777777,2.8777777777777778,-0.3799816348866434,0.5818317566717336
2000-01-01 00:00:02.897222222,2.897222222222222,-0.4128858588961475,0.5257362080121213
2000-01-01 00:00:02.916666666,2.9166666666666665,-0.3909497095564781,0.5257362080121213
2000-01-01 00:00:02.936111111,2.9361111111111113,-0.3580454855469739,0.5070376917922506
2000-01-01 00:00:02.955555555,2.9555555555555557,-0.3251412615374698,0.4883391755723797
2000-01-01 00:00:02.975000000,2.975,-0.2812689628581309,0.5070376917922506
2000-01-01 00:00:02.994444444,2.9944444444444445,-0.3361093362073045,0.5070376917922506
2000-01-01 00:00:03.013888888,3.013888888888889,-0.3251412615374698,0.3948465944730259
2000-01-01 00:00:03.033333333,3.033333333333333,-0.3470774108771392,0.4135451106928967
2000-01-01 00:00:03.052777777,3.052777777777778,-0.2922370375279656,0.4322436269127674
2000-01-01 00:00:03.072222222,3.0722222222222224,-0.2483647388486268,0.4322436269127674
2000-01-01 00:00:03.091666666,3.091666666666667,-0.2483647388486268,0.4509421431326382
2000-01-01 00:00:03.111111111,3.111111111111111,-0.2373966641787921,0.4509421431326382
2000-01-01 00:00:03.130555555,3.1305555555555555,-0.0948116934709407,0.469640659352509
2000-01-01 00:00:03.150000000,3.15,0.1026136505860841,0.151765883614706
2000-01-01 00:00:03.169444444,3.1694444444444443,0.0039009785575716,0.1143688511749644
2000-01-01 00:00:03.188888888,3.188888888888889,-0.1386839921502796,0.2639569809339306
2000-01-01 00:00:03.208333333,3.2083333333333335,-0.1715882161597837,0.2826554971538013
2000-01-01 00:00:03.227777777,3.227777777777778,-0.2044924401692879,0.226559948494189
2000-01-01 00:00:03.247222222,3.2472222222222222,-0.2264285895089573,0.0769718187352229
2000-01-01 00:00:03.266666666,3.2666666666666666,0.7826342801158365,-0.5961747651801245
2000-01-01 00:00:03.286111111,3.286111111111111,3.2943233795079863,-0.2782999894423215
2000-01-01 00:00:03.305555555,3.305555555555556,-0.1715882161597837,-0.1848074083429677
2000-01-01 00:00:03.325000000,3.325,-0.2044924401692879,0.2826554971538013
2000-01-01 00:00:03.344444444,3.344444444444445,-0.3361093362073045,0.2826554971538013
2000-01-01 00:00:03.363888888,3.363888888888889,-0.2922370375279656,0.1891629160544475
2000-01-01 00:00:03.383333333,3.3833333333333333,-0.2703008881882962,0.1143688511749644
2000-01-01 00:00:03.402777777,3.4027777777777777,-0.1825562908296185,0.0956703349550937
2000-01-01 00:00:03.422222222,3.4222222222222225,-0.0619074694614366,0.0395747862954814
2000-01-01 00:00:03.441666666,3.441666666666667,0.0477732772369105,-0.0539177948038723
2000-01-01 00:00:03.461111111,3.4611111111111112,0.1903582479447618,-0.3343955381019338
2000-01-01 00:00:03.480555555,3.4805555555555556,0.3548793679922825,-0.6896673462794783
2000-01-01 00:00:03.500000000,3.5,0.5961770107286463,-0.8579539922583151
2000-01-01 00:00:03.519444444,3.5194444444444444,0.7168258320968282,-0.9701450895775398
2000-01-01 00:00:03.538888888,3.5388888888888888,0.7936023547856712,-0.7644614111589614
2000-01-01 00:00:03.558333333,3.5583333333333336,0.6729535334174893,-0.3343955381019338
2000-01-01 00:00:03.577777777,3.577777777777778,0.3439112933224478,0.0395747862954814
2000-01-01 00:00:03.597222222,3.5972222222222223,0.1245497999257535,0.1891629160544475
2000-01-01 00:00:03.616666666,3.6166666666666663,0.0806775012464146,0.2452584647140598
2000-01-01 00:00:03.636111111,3.636111111111111,0.0916455759162493,0.2452584647140598
2000-01-01 00:00:03.655555555,3.655555555555555,0.1026136505860841,0.2078614322743183
2000-01-01 00:00:03.675000000,3.675,0.1026136505860841,0.1891629160544475
2000-01-01 00:00:03.694444444,3.6944444444444446,0.1026136505860841,0.151765883614706
2000-01-01 00:00:03.713888888,3.713888888888889,0.1245497999257535,0.151765883614706
2000-01-01 00:00:03.733333333,3.7333333333333334,0.2671347706336048,0.2078614322743183
2000-01-01 00:00:03.752777777,3.7527777777777778,0.4974643387001338,0.1143688511749644
2000-01-01 00:00:03.772222222,3.772222222222222,0.8155385041253406,-0.5213807003006414
2000-01-01 00:00:03.791666666,3.7916666666666665,1.802665224410465,-2.6343130331460376
2000-01-01 00:00:03.811111111,3.8111111111111113,2.9433449900732755,-3.7562240063382832
2000-01-01 00:00:03.830555555,3.830555555555556,3.853695187669557,-3.812319554997896
2000-01-01 00:00:03.850000000,3.85,3.074961886111292,-1.811578319471724
2000-01-01 00:00:03.869444444,3.869444444444445,2.526558152619556,-1.119733219336506
2000-01-01 00:00:03.888888888,3.888888888888889,1.1884530428997209,-0.6709688300596076
2000-01-01 00:00:03.908333333,3.908333333333333,-0.6212792776230072,0.8249124675300534
2000-01-01 00:00:03.927777777,3.927777777777778,-0.9503215177180486,1.1053902108281148
2000-01-01 00:00:03.947222222,3.9472222222222224,-1.0600022644163958,1.273676856806952
2000-01-01 00:00:03.966666666,3.966666666666667,-1.213555309794082,1.6102501487646257
2000-01-01 00:00:03.986111111,3.986111111111111,-1.3451722058320985,2.077713054261394
2000-01-01 00:00:04.005555555,4.0055555555555555,-1.476789101870115,2.3955878299991977
2000-01-01 00:00:04.025000000,4.025,-1.597437923238297,2.5638744759780345
2000-01-01 00:00:04.044444444,4.044444444444444,-1.630342147247801,2.3207937651197144
2000-01-01 00:00:04.063888888,4.063888888888889,-1.4548529525304454,1.8533308596229456
2000-01-01 00:00:04.083333333,4.083333333333333,-1.0270980404068917,1.0679931783883734
2000-01-01 00:00:04.102777777,4.102777777777778,-0.51159853092466,0.5631332404518627
2000-01-01 00:00:04.122222222,4.122222222222223,-0.1715882161597837,0.3387510458134136
2000-01-01 00:00:04.141666666,4.141666666666667,-0.0948116934709407,0.2452584647140598
2000-01-01 00:00:04.161111111,4.161111111111111,-0.1496520668201143,0.226559948494189
2000-01-01 00:00:04.180555555,4.180555555555555,-0.160620141489949,0.2078614322743183
2000-01-01 00:00:04.200000000,4.2,-0.1715882161597837,0.226559948494189
2000-01-01 00:00:04.219444444,4.219444444444444,-0.1277159174804449,0.2826554971538013
2000-01-01 00:00:04.238888888,4.238888888888889,-0.1167478428106102,0.3200525295935428
2000-01-01 00:00:04.258333333,4.258333333333334,-0.0728755441312713,0.2826554971538013
2000-01-01 00:00:04.277777777,4.277777777777778,-0.0619074694614366,0.2452584647140598
2000-01-01 00:00:04.297222222,4.2972222222222225,-0.0509393947916019,0.226559948494189
2000-01-01 00:00:04.316666666,4.316666666666666,0.0806775012464146,0.1704643998345767
2000-01-01 00:00:04.336111111,4.336111111111111,0.7716662054460017,-0.4465866354211584
2000-01-01 00:00:04.355555555,4.355555555555556,1.9781544191278204,-2.372533806067847
2000-01-01 00:00:04.375000000,4.375,3.261419155498482,-3.8871136198773786
2000-01-01 00:00:04.394444444,4.394444444444445,3.7878867396505487,-3.924510652317121
2000-01-01 00:00:04.413888888,4.413888888888889,3.0091534380922837,-1.8489753519114656
2000-01-01 00:00:04.433333333,4.433333333333334,2.7020473473369115,-0.9888436057974104
2000-01-01 00:00:04.452777777,4.4527777777777775,1.265229565588564,-0.3904910867615461
2000-01-01 00:00:04.472222222,4.472222222222222,-0.5664389042738336,0.9184050486294072
2000-01-01 00:00:04.491666666,4.491666666666667,-0.8735449950292056,1.2362798243672102
2000-01-01 00:00:04.511111111,4.511111111111111,-1.1038745630957347,1.4419635027857889
2000-01-01 00:00:04.530555555,4.530555555555556,-1.2354914591337511,1.6850442136441086
2000-01-01 00:00:04.550000000,4.55,-1.4438848778606108,2.0029189893819117
2000-01-01 00:00:04.569444444,4.569444444444445,-1.5425975498891231,2.358190797559456
2000-01-01 00:00:04.588888888,4.588888888888889,-1.6413102219176356,2.526477443538293
2000-01-01 00:00:04.608333333,4.608333333333333,-1.630342147247801,2.432984862438939
2000-01-01 00:00:04.627777777,4.627777777777778,-1.4548529525304454,1.9281249245024288
2000-01-01 00:00:04.647222222,4.647222222222222,-0.9941938163973876,1.1053902108281148
2000-01-01 00:00:04.666666666,4.666666666666667,-0.4786943069151558,0.544434724231992
2000-01-01 00:00:04.686111111,4.686111111111111,-0.1167478428106102,0.2826554971538013
2000-01-01 00:00:04.705555555,4.705555555555556,-0.0180351707820977,0.2452584647140598
2000-01-01 00:00:04.725000000,4.725,-0.0290032454519324,0.2639569809339306
2000-01-01 00:00:04.744444444,4.7444444444444445,-0.1167478428106102,0.2452584647140598
2000-01-01 00:00:04.763888888,4.763888888888889,-0.0619074694614366,0.2078614322743183
2000-01-01 00:00:04.783333333,4.783333333333333,-0.0399713201217672,0.2078614322743183
2000-01-01 00:00:04.802777777,4.802777777777778,0.025837127897241,0.226559948494189
2000-01-01 00:00:04.822222222,4.822222222222222,0.0806775012464146,0.2452584647140598
2000-01-01 00:00:04.841666666,4.841666666666667,0.0697094265765799,0.1891629160544475
2000-01-01 00:00:04.861111111,4.861111111111112,0.025837127897241,0.0956703349550937
2000-01-01 00:00:04.880555555,4.8805555555555555,0.0368052025670758,0.0395747862954814
2000-01-01 00:00:04.900000000,4.9,0.0806775012464146,-0.0352192785840016
2000-01-01 00:00:04.919444444,4.919444444444444,0.1135817252559188,0.0769718187352229
2000-01-01 00:00:04.938888888,4.938888888888889,0.1355178745955882,0.0395747862954814
2000-01-01 00:00:04.958333333,4.958333333333333,0.1245497999257535,0.0395747862954814
2000-01-01 00:00:04.977777777,4.977777777777778,0.0697094265765799,0.0395747862954814
2000-01-01 00:00:04.997222222,4.997222222222223,0.1574540239352576,0.0395747862954814
2000-01-01 00:00:05.016666666,5.016666666666667,0.3110070693129437,0.1704643998345767
2000-01-01 00:00:05.036111111,5.036111111111111,0.4974643387001338,-0.1848074083429677
2000-01-01 00:00:05.055555555,5.055555555555555,0.3110070693129437,-0.1287118596833554
2000-01-01 00:00:05.075000000,5.075,0.1245497999257535,-0.0539177948038723
2000-01-01 00:00:05.094444444,5.094444444444444,0.0477732772369105,-0.1100133434634846
2000-01-01 00:00:05.113888888,5.113888888888889,0.0697094265765799,-0.1287118596833554
2000-01-01 00:00:05.133333333,5.133333333333334,0.1245497999257535,-0.2969985056621923
2000-01-01 00:00:05.152777777,5.152777777777778,1.3968464616265803,-0.8392554760384444
2000-01-01 00:00:05.172222222,5.1722222222222225,3.765950590310879,-0.7457628949390906
2000-01-01 00:00:05.191666666,5.191666666666666,0.2013263226145965,-0.5026821840807707
2000-01-01 00:00:05.211111111,5.211111111111111,0.025837127897241,-0.0539177948038723
2000-01-01 00:00:05.230555555,5.230555555555556,-0.0399713201217672,0.0021777538557399
2000-01-01 00:00:05.250000000,5.25,-0.0180351707820977,-0.0165207623641308
2000-01-01 00:00:05.269444444,5.269444444444445,0.025837127897241,0.0021777538557399
2000-01-01 00:00:05.288888888,5.288888888888889,0.1245497999257535,-0.0352192785840016
2000-01-01 00:00:05.308333333,5.308333333333334,0.2122943972844312,-0.1474103759032262
2000-01-01 00:00:05.327777777,5.3277777777777775,0.3548793679922825,-0.3904910867615461
2000-01-01 00:00:05.347222222,5.347222222222222,0.5194004880398033,-0.7457628949390906
2000-01-01 00:00:05.366666666,5.366666666666667,0.7716662054460017,-1.0449391544570228
2000-01-01 00:00:05.386111111,5.386111111111111,1.034899997522035,-1.119733219336506
2000-01-01 00:00:05.405555555,5.405555555555556,1.0787722962013735,-0.8953510246980567
2000-01-01 00:00:05.425000000,5.425,0.7168258320968282,-0.3530940543218046
2000-01-01 00:00:05.444444444,5.444444444444445,0.3329432186526131,0.0208762700756106
2000-01-01 00:00:05.463888888,5.463888888888889,0.1245497999257535,0.0956703349550937
2000-01-01 00:00:05.483333333,5.483333333333333,0.1464859492654229,0.1330673673948352
2000-01-01 00:00:05.502777777,5.502777777777778,0.1355178745955882,0.2078614322743183
2000-01-01 00:00:05.522222222,5.522222222222222,0.1684220986050923,0.1891629160544475
2000-01-01 00:00:05.541666666,5.541666666666667,0.1793901732749271,0.226559948494189
2000-01-01 00:00:05.561111111,5.561111111111111,0.1684220986050923,0.0956703349550937
2000-01-01 00:00:05.580555555,5.580555555555556,0.1684220986050923,0.1143688511749644
2000-01-01 00:00:05.600000000,5.6,0.2561666959637701,0.1891629160544475
2000-01-01 00:00:05.619444444,5.6194444444444445,0.4755281893604644,0.226559948494189
2000-01-01 00:00:05.638888888,5.638888888888889,0.4864962640302991,0.1143688511749644
2000-01-01 00:00:05.658333333,5.658333333333333,0.4974643387001338,-0.1100133434634846
2000-01-01 00:00:05.677777777,5.677777777777778,1.0897403708712086,-1.2880198653153427
2000-01-01 00:00:05.697222222,5.697222222222222,2.1097713151658373,-3.569238844139576
2000-01-01 00:00:05.716666666,5.716666666666667,3.283355304838152,-4.878134979530529
2000-01-01 00:00:05.736111111,5.736111111111112,3.3601318275269945,-4.018003233416474
2000-01-01 00:00:05.755555555,5.7555555555555555,3.3272276035174904,-2.2416441925287516
2000-01-01 00:00:05.775000000,5.775,2.9543130647431104,-1.0636376706768935
2000-01-01 00:00:05.794444444,5.794444444444444,-0.1935243654994532,0.6005302728916043
2000-01-01 00:00:05.813888888,5.813888888888889,-0.7967684723403626,1.0492946621685026
2000-01-01 00:00:05.833333333,5.833333333333333,-0.9503215177180486,1.1614857594877273
2000-01-01 00:00:05.852777777,5.852777777777778,-1.0380661150767263,1.5354560838851423
2000-01-01 00:00:05.872222222,5.872222222222223,-1.169683011114743,1.834632343403075
2000-01-01 00:00:05.891666666,5.891666666666667,-1.3561402805019331,2.1712056353607485
2000-01-01 00:00:05.911111111,5.911111111111111,-1.520661400549454,2.3768893137793268
2000-01-01 00:00:05.930555555,5.930555555555555,-1.6084059979081315,2.3768893137793268
2000-01-01 00:00:05.950000000,5.95,-1.520661400549454,2.096411570481265
2000-01-01 00:00:05.969444444,5.969444444444444,-1.2683956831432557,1.5354560838851423
2000-01-01 00:00:05.988888888,5.988888888888889,-0.7638642483308584,0.8997065324095366
2000-01-01 00:00:06.008333333,6.008333333333334,-0.3361093362073045,0.3948465944730259
2000-01-01 00:00:06.027777777,6.027777777777778,-0.1496520668201143,0.2826554971538013
2000-01-01 00:00:06.047222222,6.0472222222222225,-0.1386839921502796,0.1891629160544475
2000-01-01 00:00:06.066666666,6.066666666666666,-0.1057797681407755,0.0956703349550937
2000-01-01 00:00:06.086111111,6.086111111111111,-0.0948116934709407,0.1704643998345767
2000-01-01 00:00:06.105555555,6.105555555555556,-0.0399713201217672,0.2826554971538013
2000-01-01 00:00:06.125000000,6.125,-0.0399713201217672,0.2078614322743183
2000-01-01 00:00:06.144444444,6.144444444444445,-0.0619074694614366,0.1704643998345767
2000-01-01 00:00:06.163888888,6.163888888888889,0.0477732772369105,0.1143688511749644
2000-01-01 00:00:06.183333333,6.183333333333334,0.5303685627096381,-0.5774762489602537
2000-01-01 00:00:06.202777777,6.2027777777777775,1.682016403042283,-2.522121935826813
2000-01-01 00:00:06.222222222,6.222222222222222,2.8556003927145976,-4.055400265856216
2000-01-01 00:00:06.241666666,6.241666666666667,3.4149722008761683,-3.6066358765793174
2000-01-01 00:00:06.261111111,6.261111111111111,2.76785579535592,-1.3254168977550842
2000-01-01 00:00:06.280555555,6.280555555555556,2.8446323180447632,-0.7083658624993491
2000-01-01 00:00:06.300000000,6.3,1.1007084455410432,-0.4652851516410292
2000-01-01 00:00:06.319444444,6.319444444444445,-0.4128858588961475,0.5631332404518627
2000-01-01 00:00:06.338888888,6.338888888888889,-0.818704621680032,0.9745005972890196
2000-01-01 00:00:06.358333333,6.358333333333333,-1.0380661150767263,1.180184275707598
2000-01-01 00:00:06.377777777,6.377777777777778,-1.2245233844639165,1.3484709216864348
2000-01-01 00:00:06.397222222,6.397222222222222,-1.4329168031907762,1.5541546001050133
2000-01-01 00:00:06.416666666,6.416666666666667,-1.5645336992287926,1.6850442136441086
2000-01-01 00:00:06.436111111,6.436111111111111,-1.586469848568462,1.7037427298639791
2000-01-01 00:00:06.455555555,6.455555555555556,-1.4987252512097844,1.572853116324884
2000-01-01 00:00:06.475000000,6.4750000000000005,-1.202587235124247,1.0492946621685026
2000-01-01 00:00:06.494444444,6.4944444444444445,-0.8077365470101973,0.5070376917922506
2000-01-01 00:00:06.513888888,6.513888888888889,-0.4348220082358169,0.1143688511749644
2000-01-01 00:00:06.533333333,6.533333333333333,-0.2264285895089573,0.0208762700756106
2000-01-01 00:00:06.552777777,6.552777777777778,-0.1277159174804449,0.0021777538557399
2000-01-01 00:00:06.572222222,6.572222222222222,-0.1386839921502796,0.0956703349550937
2000-01-01 00:00:06.591666666,6.591666666666667,-0.1496520668201143,0.1143688511749644
2000-01-01 00:00:06.611111111,6.611111111111112,-0.1386839921502796,-0.0165207623641308
2000-01-01 00:00:06.630555555,6.6305555555555555,-0.1386839921502796,-0.0913148272436139
2000-01-01 00:00:06.650000000,6.65,-0.0290032454519324,-0.1100133434634846
2000-01-01 00:00:06.669444444,6.669444444444444,0.0477732772369105,-0.1474103759032262
2000-01-01 00:00:06.688888888,6.688888888888889,0.0368052025670758,-0.1100133434634846
2000-01-01 00:00:06.708333333,6.708333333333333,0.025837127897241,-0.0913148272436139
2000-01-01 00:00:06.727777777,6.727777777777778,0.0148690532274063,-0.1848074083429677
2000-01-01 00:00:06.747222222,6.747222222222223,-0.0180351707820977,-0.2035059245628385
2000-01-01 00:00:06.766666666,6.766666666666667,0.025837127897241,-0.2035059245628385
2000-01-01 00:00:06.786111111,6.786111111111111,0.0806775012464146,-0.2035059245628385
2000-01-01 00:00:06.805555555,6.805555555555555,0.0587413519067452,-0.2035059245628385
2000-01-01 00:00:06.825000000,6.825,0.0368052025670758,-0.2035059245628385
2000-01-01 00:00:06.844444444,6.844444444444445,0.0587413519067452,-0.2596014732224507
2000-01-01 00:00:06.863888888,6.863888888888889,0.0148690532274063,-0.2969985056621923
2000-01-01 00:00:06.883333333,6.883333333333334,0.0587413519067452,-0.315697021882063
2000-01-01 00:00:06.902777777,6.902777777777778,0.1245497999257535,-0.315697021882063
2000-01-01 00:00:06.922222222,6.9222222222222225,0.0806775012464146,-0.2035059245628385
2000-01-01 00:00:06.941666666,6.941666666666666,0.1245497999257535,-0.2222044407827092
2000-01-01 00:00:06.961111111,6.961111111111111,0.1903582479447618,-0.1474103759032262
2000-01-01 00:00:06.980555555,6.980555555555556,0.4206878160112908,-0.2596014732224507
2000-01-01 00:00:07.000000000,7.0,0.3987516666716214,-0.4465866354211584
2000-01-01 00:00:07.019444444,7.019444444444445,0.1793901732749271,-0.3904910867615461
2000-01-01 00:00:07.038888888,7.038888888888889,0.0368052025670758,-0.3343955381019338
2000-01-01 00:00:07.058333333,7.058333333333334,0.0587413519067452,-0.3904910867615461
2000-01-01 00:00:07.077777777,7.0777777777777775,-0.083843618801106,-0.5400792165205123
2000-01-01 00:00:07.097222222,7.097222222222222,2.1317074645055065,-1.2506228328756013
2000-01-01 00:00:07.116666666,7.116666666666667,1.758792925731126,-0.5026821840807707
2000-01-01 00:00:07.136111111,7.136111111111111,0.0039009785575716,-0.5774762489602537
2000-01-01 00:00:07.155555555,7.155555555555556,-0.0290032454519324,-0.2782999894423215
2000-01-01 00:00:07.175000000,7.175,-0.0180351707820977,-0.315697021882063
2000-01-01 00:00:07.194444444,7.194444444444445,-0.0399713201217672,-0.3530940543218046
2000-01-01 00:00:07.213888888,7.213888888888889,-0.0290032454519324,-0.4465866354211584
2000-01-01 00:00:07.233333333,7.233333333333333,0.0368052025670758,-0.5213807003006414
2000-01-01 00:00:07.252777777,7.252777777777778,0.2232624719542659,-0.5961747651801245
2000-01-01 00:00:07.272222222,7.272222222222222,0.3439112933224478,-0.7644614111589614
2000-01-01 00:00:07.291666666,7.291666666666667,0.5413366373794727,-1.0449391544570228
2000-01-01 00:00:07.311111111,7.311111111111111,0.6729535334174893,-1.2506228328756013
2000-01-01 00:00:07.330555555,7.330555555555556,0.8265065787951753,-1.344115413974955
2000-01-01 00:00:07.350000000,7.35,0.8155385041253406,-1.1010347031166352
2000-01-01 00:00:07.369444444,7.3694444444444445,0.5413366373794727,-0.5961747651801245
2000-01-01 00:00:07.388888888,7.388888888888889,0.2890709199732743,-0.2035059245628385
2000-01-01 00:00:07.408333333,7.408333333333333,0.0697094265765799,-0.0539177948038723
2000-01-01 00:00:07.427777777,7.427777777777778,-0.0180351707820977,-0.0165207623641308
2000-01-01 00:00:07.447222222,7.447222222222222,-0.0180351707820977,-0.0913148272436139
2000-01-01 00:00:07.466666666,7.466666666666667,0.025837127897241,-0.1474103759032262
2000-01-01 00:00:07.486111111,7.486111111111112,0.0477732772369105,-0.1848074083429677
2000-01-01 00:00:07.505555555,7.5055555555555555,0.0806775012464146,-0.0539177948038723
2000-01-01 00:00:07.525000000,7.525,0.2342305466241007,0.0021777538557399
2000-01-01 00:00:07.544444444,7.544444444444444,0.3658474426621173,-0.0539177948038723
2000-01-01 00:00:07.563888888,7.563888888888889,0.3329432186526131,-0.1848074083429677
2000-01-01 00:00:07.583333333,7.583333333333333,0.8484427281348448,-1.1571302517762474
2000-01-01 00:00:07.602777777,7.602777777777778,2.00009056846749,-3.3448566495011267
2000-01-01 00:00:07.622222222,7.622222222222223,3.107866110120796,-4.3545765253741475
2000-01-01 00:00:07.641666666,7.641666666666667,3.272387230168317,-3.550540327919705
2000-01-01 00:00:07.661111111,7.661111111111111,2.515590077949722,-1.6432916734928873
2000-01-01 00:00:07.680555555,7.680555555555555,2.307196659222862,-1.269321349095472
2000-01-01 00:00:07.700000000,7.7,-0.0728755441312713,0.1891629160544475
2000-01-01 00:00:07.719444444,7.719444444444445,-0.8625769203593708,0.862309499969795
2000-01-01 00:00:07.738888888,7.738888888888889,-1.0709703390862304,1.180184275707598
2000-01-01 00:00:07.758333333,7.758333333333334,-1.2574276084734206,1.4980590514454009
2000-01-01 00:00:07.777777777,7.777777777777778,-1.476789101870115,1.8907278920626869
2000-01-01 00:00:07.797222222,7.7972222222222225,-1.6413102219176356,2.245999700240231
2000-01-01 00:00:07.816666666,7.816666666666666,-1.7509909686159828,2.432984862438939
2000-01-01 00:00:07.836111111,7.836111111111111,-1.7948632672953218,2.3955878299991977
2000-01-01 00:00:07.855555555,7.855555555555556,-1.6413102219176356,2.0029189893819117
2000-01-01 00:00:07.875000000,7.875,-1.3122679818225942,1.273676856806952
2000-01-01 00:00:07.894444444,7.894444444444445,-0.8516088456895362,0.5818317566717336
2000-01-01 00:00:07.913888888,7.913888888888889,-0.5006304562548253,0.226559948494189
2000-01-01 00:00:07.933333333,7.933333333333334,-0.3470774108771392,0.1143688511749644
2000-01-01 00:00:07.952777777,7.9527777777777775,-0.3032051121978004,0.1704643998345767
2000-01-01 00:00:07.972222222,7.972222222222222,-0.3141731868676351,0.2078614322743183
2000-01-01 00:00:07.991666666,7.991666666666667,-0.3361093362073045,0.2639569809339306
2000-01-01 00:00:08.011111111,8.011111111111111,-0.3361093362073045,0.1891629160544475
2000-01-01 00:00:08.030555555,8.030555555555555,-0.2922370375279656,0.0956703349550937
2000-01-01 00:00:08.050000000,8.05,-0.1935243654994532,0.1143688511749644
2000-01-01 00:00:08.069444444,8.069444444444445,-0.1167478428106102,0.1704643998345767
2000-01-01 00:00:08.088888888,8.088888888888889,0.3439112933224478,-0.2782999894423215
2000-01-01 00:00:08.108333333,8.108333333333334,1.451686834975754,-2.4099308385075884
2000-01-01 00:00:08.127777777,8.127777777777778,2.8336642433749284,-3.924510652317121
2000-01-01 00:00:08.147222222,8.147222222222222,3.513684872904681,-3.793621038778025
2000-01-01 00:00:08.166666666,8.166666666666666,2.7897919446955894,-1.531100576173663
2000-01-01 00:00:08.186111111,8.186111111111112,2.570430451298895,-0.8205569598185737
2000-01-01 00:00:08.205555555,8.205555555555556,0.4316558906811256,0.0208762700756106
2000-01-01 00:00:08.225000000,8.225,-0.8296726963498667,0.9184050486294072
2000-01-01 00:00:08.244444444,8.244444444444445,-1.1806510857845776,1.1988827919274687
2000-01-01 00:00:08.263888888,8.26388888888889,-1.3342041311622637,1.3671694379063055
2000-01-01 00:00:08.283333333,8.283333333333333,-1.520661400549454,1.6850442136441086
2000-01-01 00:00:08.302777777,8.302777777777777,-1.6851825205969746,2.1525071191408776
2000-01-01 00:00:08.322222222,8.322222222222223,-1.8167994166349912,2.358190797559456
2000-01-01 00:00:08.341666666,8.341666666666667,-1.729054819276313,2.021617505601782
2000-01-01 00:00:08.361111111,8.36111111111111,-1.246459533803586,1.1614857594877273
2000-01-01 00:00:08.380555555,8.380555555555556,-0.6432154269626765,0.469640659352509
2000-01-01 00:00:08.400000000,8.4,-0.2812689628581309,0.2078614322743183
2000-01-01 00:00:08.419444444,8.419444444444444,-0.1825562908296185,0.1704643998345767
2000-01-01 00:00:08.438888888,8.438888888888888,-0.1715882161597837,0.226559948494189
2000-01-01 00:00:08.458333333,8.458333333333334,-0.2264285895089573,0.2826554971538013
2000-01-01 00:00:08.477777777,8.477777777777778,-0.2154605148391226,0.1704643998345767
2000-01-01 00:00:08.497222222,8.497222222222222,-0.1715882161597837,0.0395747862954814
2000-01-01 00:00:08.516666666,8.516666666666667,-0.0728755441312713,0.0582733025153521
2000-01-01 00:00:08.536111111,8.536111111111111,-0.0290032454519324,0.0956703349550937
2000-01-01 00:00:08.555555555,8.555555555555555,-0.007067096112263,0.0956703349550937
2000-01-01 00:00:08.574999999,8.575,-0.0399713201217672,0.0956703349550937
2000-01-01 00:00:08.594444444,8.594444444444445,-0.0399713201217672,0.0021777538557399
2000-01-01 00:00:08.613888888,8.613888888888889,-0.0180351707820977,-0.0352192785840016
2000-01-01 00:00:08.633333333,8.633333333333333,-0.007067096112263,-0.0539177948038723
2000-01-01 00:00:08.652777777,8.652777777777779,0.0477732772369105,-0.0352192785840016
2000-01-01 00:00:08.672222222,8.672222222222222,0.0039009785575716,0.0582733025153521
2000-01-01 00:00:08.691666666,8.691666666666666,-0.0180351707820977,0.0395747862954814
2000-01-01 00:00:08.711111111,8.711111111111112,0.0039009785575716,-0.0165207623641308
2000-01-01 00:00:08.730555555,8.730555555555556,0.1026136505860841,0.0769718187352229
2000-01-01 00:00:08.750000000,8.75,0.3658474426621173,0.0582733025153521
2000-01-01 00:00:08.769444444,8.769444444444444,0.376815517331952,-0.2222044407827092
2000-01-01 00:00:08.788888888,8.78888888888889,0.1793901732749271,-0.2222044407827092
2000-01-01 00:00:08.808333333,8.808333333333334,0.0148690532274063,-0.1100133434634846
2000-01-01 00:00:08.827777777,8.827777777777778,-0.0180351707820977,-0.1661088921230969
2000-01-01 00:00:08.847222222,8.847222222222223,0.0039009785575716,-0.24090295700258
2000-01-01 00:00:08.866666666,8.866666666666667,0.1684220986050923,-0.3343955381019338
2000-01-01 00:00:08.886111111,8.886111111111111,3.0639938114414575,-1.138431735556377
2000-01-01 00:00:08.905555555,8.905555555555555,0.958123474833192,-0.4839836678608999
2000-01-01 00:00:08.925000000,8.925,-0.0399713201217672,-0.2782999894423215
2000-01-01 00:00:08.944444444,8.944444444444445,-0.083843618801106,-0.1661088921230969
2000-01-01 00:00:08.963888888,8.963888888888889,-0.1057797681407755,-0.1661088921230969
2000-01-01 00:00:08.983333333,8.983333333333334,-0.0509393947916019,-0.1848074083429677
2000-01-01 00:00:09.002777777,9.002777777777778,-0.007067096112263,-0.1474103759032262
2000-01-01 00:00:09.022222222,9.022222222222222,0.1135817252559188,-0.2035059245628385
2000-01-01 00:00:09.041666666,9.041666666666666,0.1245497999257535,-0.315697021882063
2000-01-01 00:00:09.061111111,9.061111111111112,0.2342305466241007,-0.5026821840807707
2000-01-01 00:00:09.080555555,9.080555555555556,0.376815517331952,-0.7831599273788321
2000-01-01 00:00:09.100000000,9.1,0.6619854587476546,-1.0823361868967645
2000-01-01 00:00:09.119444444,9.119444444444444,0.8813469521443489,-1.2506228328756013
2000-01-01 00:00:09.138888888,9.13888888888889,1.0239319228522,-1.2132258004358596
2000-01-01 00:00:09.158333333,9.158333333333331,0.8484427281348448,-0.8953510246980567
2000-01-01 00:00:09.177777777,9.177777777777775,0.4974643387001338,-0.3717925705416753
2000-01-01 00:00:09.197222222,9.197222222222225,0.2451986212939354,-0.1287118596833554
2000-01-01 00:00:09.216666666,9.216666666666669,0.0148690532274063,-0.0352192785840016
2000-01-01 00:00:09.236111111,9.23611111111111,0.0806775012464146,0.0395747862954814
2000-01-01 00:00:09.255555555,9.255555555555556,0.0697094265765799,0.1143688511749644
2000-01-01 00:00:09.275000000,9.275,0.1135817252559188,0.0956703349550937
2000-01-01 00:00:09.294444444,9.294444444444444,0.0587413519067452,0.0208762700756106
2000-01-01 00:00:09.313888888,9.313888888888888,0.1026136505860841,-0.1474103759032262
2000-01-01 00:00:09.333333333,9.333333333333334,0.0916455759162493,-0.1287118596833554
2000-01-01 00:00:09.352777777,9.352777777777778,0.1903582479447618,-0.0165207623641308
2000-01-01 00:00:09.372222222,9.372222222222222,0.3658474426621173,0.0956703349550937
2000-01-01 00:00:09.391666666,9.391666666666667,0.3658474426621173,-0.0539177948038723
2000-01-01 00:00:09.411111111,9.411111111111111,0.376815517331952,-0.2782999894423215
2000-01-01 00:00:09.430555555,9.430555555555555,0.9142511761538532,-1.2880198653153427
2000-01-01 00:00:09.450000000,9.45,1.9781544191278204,-3.494444779260093
2000-01-01 00:00:09.469444444,9.469444444444443,3.0530257367716227,-4.466767622693372
2000-01-01 00:00:09.488888888,9.488888888888887,3.623365619603028,-4.092797298295957
2000-01-01 00:00:09.508333333,9.508333333333333,2.998185363422449,-2.0920560627697857
2000-01-01 00:00:09.527777777,9.52777777777778,2.7897919446955894,-1.3067183815352137
2000-01-01 00:00:09.547222222,9.547222222222222,0.9690915495030268,-0.4465866354211584
2000-01-01 00:00:09.566666666,9.566666666666666,-0.6870877256420155,0.6379273053313459
2000-01-01 00:00:09.586111111,9.586111111111112,-0.9503215177180486,0.937103564849278
2000-01-01 00:00:09.605555555,9.605555555555556,-1.0490341897465612,1.2175813081473394
2000-01-01 00:00:09.625000000,9.625,-1.1806510857845776,1.423264986565918
2000-01-01 00:00:09.644444444,9.644444444444444,-1.3012999071527596,1.7037427298639791
2000-01-01 00:00:09.663888888,9.66388888888889,-1.4877571765399498,1.9842204731620408
2000-01-01 00:00:09.683333333,9.683333333333334,-1.5645336992287926,2.20860266780049
2000-01-01 00:00:09.702777777,9.702777777777778,-1.553565624558958,2.2273011840203605
2000-01-01 00:00:09.722222222,9.722222222222223,-1.4438848778606108,1.9094264082825576
2000-01-01 00:00:09.741666666,9.741666666666667,-1.202587235124247,1.3858679541261765
2000-01-01 00:00:09.761111111,9.761111111111113,-0.7858003976705279,0.6753243377710874
2000-01-01 00:00:09.780555555,9.780555555555557,-0.3690135602168087,0.2078614322743183
2000-01-01 00:00:09.800000000,9.8,-0.1715882161597837,0.0021777538557399
2000-01-01 00:00:09.819444444,9.819444444444445,-0.1057797681407755,0.0395747862954814
2000-01-01 00:00:09.838888888,9.838888888888889,-0.0728755441312713,0.0395747862954814
2000-01-01 00:00:09.858333333,9.858333333333334,-0.0619074694614366,0.0582733025153521
2000-01-01 00:00:09.877777777,9.877777777777778,-0.0948116934709407,0.0956703349550937
2000-01-01 00:00:09.897222222,9.897222222222222,-0.0728755441312713,0.0395747862954814
2000-01-01 00:00:09.916666666,9.916666666666666,-0.0509393947916019,-0.0165207623641308
2000-01-01 00:00:09.936111111,9.936111111111112,0.025837127897241,0.0582733025153521
2000-01-01 00:00:09.955555555,9.955555555555556,0.453592040020795,-0.3343955381019338
2000-01-01 00:00:09.975000000,9.975,1.3639422376170764,-1.905070900571078
2000-01-01 00:00:09.994444444,9.994444444444444,2.570430451298895,-3.17657000352229
2000-01-01 00:00:10.013888888,10.01388888888889,3.897567486348896,-3.8310180712177666
2000-01-01 00:00:10.033333333,10.033333333333331,3.2943233795079863,-2.3538352898479764
2000-01-01 00:00:10.052777777,10.052777777777775,2.5923666006385644,-0.9888436057974104
2000-01-01 00:00:10.072222222,10.072222222222225,1.6271760296931097,-1.0449391544570228
2000-01-01 00:00:10.091666666,10.091666666666669,-0.4896623815849905,0.5070376917922506
2000-01-01 00:00:10.111111111,10.11111111111111,-0.818704621680032,0.8062139513101827
2000-01-01 00:00:10.130555555,10.130555555555556,-0.9941938163973876,0.9745005972890196
2000-01-01 00:00:10.150000000,10.15,-1.0929064884259,1.1988827919274687
2000-01-01 00:00:10.169444444,10.169444444444444,-1.213555309794082,1.4980590514454009
2000-01-01 00:00:10.188888888,10.188888888888888,-1.3890445045114372,1.7972353109633332
2000-01-01 00:00:10.208333333,10.208333333333334,-1.5425975498891231,1.96552195694217
2000-01-01 00:00:10.227777777,10.227777777777778,-1.586469848568462,1.815933827183204
2000-01-01 00:00:10.247222222,10.247222222222222,-1.4219487285209411,1.4419635027857889
2000-01-01 00:00:10.266666666,10.266666666666667,-1.0709703390862304,0.8249124675300534
2000-01-01 00:00:10.286111111,10.286111111111111,-0.5006304562548253,0.3013540133736721
2000-01-01 00:00:10.305555555,10.305555555555555,-0.1935243654994532,0.0769718187352229
2000-01-01 00:00:10.325000000,10.325,-0.1277159174804449,0.0208762700756106
2000-01-01 00:00:10.344444444,10.344444444444443,-0.1496520668201143,-0.0165207623641308
2000-01-01 00:00:10.363888888,10.363888888888887,-0.1277159174804449,-0.0726163110237431
2000-01-01 00:00:10.383333333,10.383333333333333,-0.1057797681407755,-0.0539177948038723
2000-01-01 00:00:10.402777777,10.40277777777778,-0.0509393947916019,-0.0726163110237431
2000-01-01 00:00:10.422222222,10.422222222222222,0.0148690532274063,-0.0539177948038723
2000-01-01 00:00:10.441666666,10.441666666666666,0.025837127897241,-0.0726163110237431
2000-01-01 00:00:10.461111111,10.461111111111112,0.0039009785575716,-0.1287118596833554
2000-01-01 00:00:10.480555555,10.480555555555556,0.025837127897241,-0.24090295700258
2000-01-01 00:00:10.500000000,10.5,0.0806775012464146,-0.2222044407827092
2000-01-01 00:00:10.519444444,10.519444444444444,0.1355178745955882,-0.24090295700258
2000-01-01 00:00:10.538888888,10.53888888888889,0.1245497999257535,-0.1474103759032262
2000-01-01 00:00:10.558333333,10.558333333333334,0.0916455759162493,-0.1848074083429677
2000-01-01 00:00:10.577777777,10.577777777777778,0.0916455759162493,-0.2222044407827092
2000-01-01 00:00:10.597222222,10.597222222222223,0.0477732772369105,-0.2969985056621923
2000-01-01 00:00:10.616666666,10.616666666666667,0.1355178745955882,-0.315697021882063
2000-01-01 00:00:10.636111111,10.636111111111113,0.3000389946431089,-0.1287118596833554
2000-01-01 00:00:10.655555555,10.655555555555557,0.5084324133699686,-0.1474103759032262
2000-01-01 00:00:10.675000000,10.675,0.4426239653509602,-0.3904910867615461
2000-01-01 00:00:10.694444444,10.694444444444445,0.2013263226145965,-0.4091896029814169
2000-01-01 00:00:10.713888888,10.713888888888889,0.0806775012464146,-0.3904910867615461
2000-01-01 00:00:10.733333333,10.733333333333334,0.0587413519067452,-0.4091896029814169
2000-01-01 00:00:10.752777777,10.752777777777778,0.0916455759162493,-0.3717925705416753
2000-01-01 00:00:10.772222222,10.772222222222222,0.4426239653509602,-0.4465866354211584
2000-01-01 00:00:10.791666666,10.791666666666666,3.886599411679061,-1.1571302517762474
2000-01-01 00:00:10.811111111,10.811111111111112,0.3219751439827784,-0.6709688300596076
2000-01-01 00:00:10.830555555,10.830555555555556,0.025837127897241,-0.4465866354211584
2000-01-01 00:00:10.850000000,10.85,0.025837127897241,-0.2969985056621923
2000-01-01 00:00:10.869444444,10.869444444444444,0.0039009785575716,-0.2969985056621923
2000-01-01 00:00:10.888888888,10.88888888888889,0.0368052025670758,-0.24090295700258
2000-01-01 00:00:10.908333333,10.908333333333331,0.0587413519067452,-0.24090295700258
2000-01-01 00:00:10.927777777,10.927777777777775,0.1135817252559188,-0.3904910867615461
2000-01-01 00:00:10.947222222,10.947222222222225,0.2122943972844312,-0.558777732740383
2000-01-01 00:00:10.966666666,10.966666666666669,0.3877835920017867,-0.7270643787192198
2000-01-01 00:00:10.986111111,10.98611111111111,0.5852089360588116,-1.007542122017281
2000-01-01 00:00:11.005555555,11.005555555555556,0.7936023547856712,-1.2319243166557303
2000-01-01 00:00:11.025000000,11.025,0.9471554001633572,-1.2880198653153427
2000-01-01 00:00:11.044444444,11.044444444444444,0.8813469521443489,-1.1571302517762474
2000-01-01 00:00:11.063888888,11.063888888888888,0.683921608087324,-0.7644614111589614
2000-01-01 00:00:11.083333333,11.083333333333334,0.3877835920017867,-0.2969985056621923
2000-01-01 00:00:11.102777777,11.102777777777778,0.1684220986050923,-0.0913148272436139
2000-01-01 00:00:11.122222222,11.122222222222222,0.1026136505860841,0.0395747862954814
2000-01-01 00:00:11.141666666,11.141666666666667,0.1245497999257535,0.0956703349550937
2000-01-01 00:00:11.161111111,11.161111111111111,0.0916455759162493,0.0208762700756106
2000-01-01 00:00:11.180555555,11.180555555555555,0.0587413519067452,-0.0913148272436139
2000-01-01 00:00:11.200000000,11.2,0.0916455759162493,-0.1287118596833554
2000-01-01 00:00:11.219444444,11.219444444444443,0.1574540239352576,-0.0165207623641308
2000-01-01 00:00:11.238888888,11.238888888888887,0.3219751439827784,0.151765883614706
2000-01-01 00:00:11.258333333,11.258333333333333,0.4755281893604644,-0.1100133434634846
2000-01-01 00:00:11.277777777,11.27777777777778,0.2342305466241007,-0.1474103759032262
2000-01-01 00:00:11.297222222,11.297222222222222,0.1026136505860841,-0.0726163110237431
2000-01-01 00:00:11.316666666,11.316666666666666,0.8594108028046795,-1.175828767996118
2000-01-01 00:00:11.336111111,11.336111111111112,1.9671863444579856,-3.475746263040222
2000-01-01 00:00:11.355555555,11.355555555555556,3.0201215127621186,-4.709848333551692
2000-01-01 00:00:11.375000000,11.375,4.11692897974559,-4.878134979530529
2000-01-01 00:00:11.394444444,11.394444444444444,2.614302749978234,-1.736784254592241
2000-01-01 00:00:11.413888888,11.41388888888889,-0.3580454855469739,0.3013540133736721
2000-01-01 00:00:11.433333333,11.433333333333334,-0.6980558003118501,0.787515435090312
2000-01-01 00:00:11.452777777,11.452777777777778,-0.8077365470101973,1.0118976297287612
2000-01-01 00:00:11.472222222,11.472222222222223,-0.8735449950292056,1.180184275707598
2000-01-01 00:00:11.491666666,11.491666666666667,-0.9941938163973876,1.4980590514454009
2000-01-01 00:00:11.511111111,11.511111111111113,-1.1148426377655694,1.7972353109633332
2000-01-01 00:00:11.530555555,11.530555555555557,-1.213555309794082,2.040316021821653
2000-01-01 00:00:11.550000000,11.55,-1.2574276084734206,2.189904151580619
2000-01-01 00:00:11.569444444,11.569444444444445,-1.213555309794082,2.133808602921007
2000-01-01 00:00:11.588888888,11.588888888888889,-0.9503215177180486,1.666345697424238
2000-01-01 00:00:11.608333333,11.608333333333334,-0.5664389042738336,0.9745005972890196
2000-01-01 00:00:11.627777777,11.627777777777778,-0.2922370375279656,0.469640659352509
2000-01-01 00:00:11.647222222,11.647222222222222,-0.1496520668201143,0.2639569809339306
2000-01-01 00:00:11.666666666,11.666666666666666,-0.1386839921502796,0.226559948494189
2000-01-01 00:00:11.686111111,11.686111111111112,-0.1496520668201143,0.2078614322743183
2000-01-01 00:00:11.705555555,11.705555555555556,-0.1057797681407755,0.226559948494189
2000-01-01 00:00:11.725000000,11.725,-0.1277159174804449,0.1891629160544475
2000-01-01 00:00:11.744444444,11.744444444444444,-0.2044924401692879,0.1891629160544475
2000-01-01 00:00:11.763888888,11.76388888888889,-0.1825562908296185,0.2078614322743183
2000-01-01 00:00:11.783333333,11.783333333333331,0.1135817252559188,-0.0726163110237431
2000-01-01 00:00:11.802777777,11.802777777777775,0.8703788774745143,-1.119733219336506
2000-01-01 00:00:11.822222222,11.822222222222225,2.0658990164864983,-3.008283357543453
2000-01-01 00:00:11.841666666,11.841666666666669,3.085929960781127,-4.074098782076087
2000-01-01 00:00:11.861111111,11.86111111111111,3.0091534380922837,-2.8773937440043578
2000-01-01 00:00:11.880555555,11.880555555555556,2.6033346753083992,-1.1571302517762474
2000-01-01 00:00:11.900000000,11.9,2.230420136534019,-1.0449391544570228
2000-01-01 00:00:11.919444444,11.919444444444444,-0.3909497095564781,0.5257362080121213
2000-01-01 00:00:11.938888888,11.938888888888888,-0.9064492190387098,0.937103564849278
2000-01-01 00:00:11.958333333,11.958333333333334,-1.125810712435404,1.1427872432678563
2000-01-01 00:00:11.977777777,11.977777777777778,-1.3122679818225942,1.2923753730268226
2000-01-01 00:00:11.997222222,11.997222222222222,-1.4877571765399498,1.5167575676652718
2000-01-01 00:00:12.016666666,12.016666666666667,-1.6522782965874705,1.7411397623037208
2000-01-01 00:00:12.036111111,12.036111111111111,-1.7838951926254871,1.9468234407222993
2000-01-01 00:00:12.055555555,12.055555555555555,-1.7948632672953218,1.9281249245024288
2000-01-01 00:00:12.075000000,12.075,-1.586469848568462,1.5541546001050133
2000-01-01 00:00:12.094444444,12.094444444444443,-1.202587235124247,0.9184050486294072
2000-01-01 00:00:12.113888888,12.113888888888887,-0.7199919496515196,0.4509421431326382
2000-01-01 00:00:12.133333333,12.133333333333333,-0.3580454855469739,0.2452584647140598
2000-01-01 00:00:12.152777777,12.15277777777778,-0.2373966641787921,0.2452584647140598
2000-01-01 00:00:12.172222222,12.172222222222222,-0.2703008881882962,0.2826554971538013
2000-01-01 00:00:12.191666666,12.191666666666666,-0.2812689628581309,0.2826554971538013
2000-01-01 00:00:12.211111111,12.211111111111112,-0.2703008881882962,0.1704643998345767
2000-01-01 00:00:12.230555555,12.230555555555556,-0.2154605148391226,0.0956703349550937
2000-01-01 00:00:12.250000000,12.25,-0.160620141489949,0.0769718187352229
2000-01-01 00:00:12.269444444,12.269444444444444,-0.1386839921502796,0.1143688511749644
2000-01-01 00:00:12.288888888,12.28888888888889,-0.1167478428106102,0.0769718187352229
2000-01-01 00:00:12.308333333,12.308333333333334,-0.1935243654994532,0.0395747862954814
2000-01-01 00:00:12.327777777,12.327777777777778,-0.1715882161597837,-0.0165207623641308
2000-01-01 00:00:12.347222222,12.347222222222223,-0.1496520668201143,-0.0726163110237431
2000-01-01 00:00:12.366666666,12.366666666666667,-0.083843618801106,-0.0913148272436139
2000-01-01 00:00:12.386111111,12.386111111111113,-0.0619074694614366,-0.0352192785840016
2000-01-01 00:00:12.405555555,12.405555555555557,-0.0948116934709407,-0.0165207623641308
2000-01-01 00:00:12.425000000,12.425,-0.1167478428106102,-0.0539177948038723
2000-01-01 00:00:12.444444444,12.444444444444445,-0.1057797681407755,-0.1287118596833554
2000-01-01 00:00:12.463888888,12.463888888888889,-0.083843618801106,-0.1287118596833554
2000-01-01 00:00:12.483333333,12.483333333333334,-0.0619074694614366,-0.0913148272436139
2000-01-01 00:00:12.502777777,12.502777777777778,-0.0509393947916019,-0.0726163110237431
2000-01-01 00:00:12.522222222,12.522222222222222,0.0368052025670758,0.0021777538557399
2000-01-01 00:00:12.541666666,12.541666666666666,0.1574540239352576,0.1143688511749644
2000-01-01 00:00:12.561111111,12.561111111111112,0.2342305466241007,-0.2782999894423215
2000-01-01 00:00:12.580555555,12.580555555555556,0.0368052025670758,-0.3343955381019338
2000-01-01 00:00:12.600000000,12.6,-0.0509393947916019,-0.2969985056621923
2000-01-01 00:00:12.619444444,12.619444444444444,-0.0399713201217672,-0.2596014732224507
2000-01-01 00:00:12.638888888,12.63888888888889,-0.0509393947916019,-0.2222044407827092
2000-01-01 00:00:12.658333333,12.658333333333331,0.0697094265765799,-0.3904910867615461
2000-01-01 00:00:12.677777777,12.677777777777775,3.283355304838152,-1.0823361868967645
2000-01-01 00:00:12.697222222,12.697222222222225,0.0806775012464146,-0.5774762489602537
2000-01-01 00:00:12.716666666,12.716666666666669,-0.0948116934709407,-0.2782999894423215
2000-01-01 00:00:12.736111111,12.73611111111111,-0.1277159174804449,-0.2035059245628385
2000-01-01 00:00:12.755555555,12.755555555555556,-0.1277159174804449,-0.1661088921230969
2000-01-01 00:00:12.775000000,12.775,-0.1167478428106102,-0.1848074083429677
2000-01-01 00:00:12.794444444,12.794444444444444,-0.1277159174804449,-0.2969985056621923
2000-01-01 00:00:12.813888888,12.813888888888888,0.0368052025670758,-0.3904910867615461
2000-01-01 00:00:12.833333333,12.833333333333334,0.1793901732749271,-0.558777732740383
2000-01-01 00:00:12.852777777,12.852777777777778,0.3548793679922825,-0.7644614111589614
2000-01-01 00:00:12.872222222,12.872222222222222,0.5413366373794727,-0.951446573357669
2000-01-01 00:00:12.891666666,12.891666666666667,0.683921608087324,-1.1010347031166352
2000-01-01 00:00:12.911111111,12.911111111111111,0.7497300561063324,-1.026240638237152
2000-01-01 00:00:12.930555555,12.930555555555555,0.5084324133699686,-0.7083658624993491
2000-01-01 00:00:12.950000000,12.95,0.3219751439827784,-0.2782999894423215
2000-01-01 00:00:12.969444444,12.969444444444443,0.0916455759162493,0.0208762700756106
2000-01-01 00:00:12.988888888,12.988888888888887,0.025837127897241,0.1330673673948352
2000-01-01 00:00:13.008333333,13.008333333333333,0.025837127897241,0.1704643998345767
2000-01-01 00:00:13.027777777,13.02777777777778,0.0148690532274063,0.1143688511749644
2000-01-01 00:00:13.047222222,13.047222222222222,0.0039009785575716,0.0395747862954814
2000-01-01 00:00:13.066666666,13.066666666666666,0.0587413519067452,0.0395747862954814
2000-01-01 00:00:13.086111111,13.086111111111112,0.2122943972844312,0.1704643998345767
2000-01-01 00:00:13.105555555,13.105555555555556,0.4645601146906297,0.0769718187352229
2000-01-01 00:00:13.125000000,13.125,0.3000389946431089,0.0208762700756106
2000-01-01 00:00:13.144444444,13.144444444444444,-0.007067096112263,0.0769718187352229
2000-01-01 00:00:13.163888888,13.16388888888889,0.5742408613889769,-0.801858443598703
2000-01-01 00:00:13.183333333,13.183333333333334,1.7368567763914569,-2.7278056142453915
2000-01-01 00:00:13.202777777,13.202777777777778,2.910440766063771,-3.7188269738985418
2000-01-01 00:00:13.222222222,13.222222222222223,3.7001421422918703,-3.5131432954799635
2000-01-01 00:00:13.241666666,13.241666666666667,4.30338624913278,-2.4847249033870717
2000-01-01 00:00:13.261111111,13.261111111111113,1.0458680721918696,-0.5400792165205123
2000-01-01 00:00:13.280555555,13.280555555555557,-0.5774069789436683,0.544434724231992
2000-01-01 00:00:13.300000000,13.3,-0.818704621680032,0.8997065324095366
2000-01-01 00:00:13.319444444,13.319444444444445,-0.8735449950292056,1.1427872432678563
2000-01-01 00:00:13.338888888,13.338888888888889,-0.9832257417275528,1.423264986565918
2000-01-01 00:00:13.358333333,13.358333333333334,-1.169683011114743,1.6850442136441086
2000-01-01 00:00:13.377777777,13.377777777777778,-1.3451722058320985,2.0029189893819117
2000-01-01 00:00:13.397222222,13.397222222222222,-1.4329168031907762,2.20860266780049
2000-01-01 00:00:13.416666666,13.416666666666666,-1.4548529525304454,2.2273011840203605
2000-01-01 00:00:13.436111111,13.436111111111112,-1.27936375781309,1.96552195694217
2000-01-01 00:00:13.455555555,13.455555555555556,-0.895481144368875,1.3671694379063055
2000-01-01 00:00:13.475000000,13.475,-0.5225666055944947,0.7688169188704412
2000-01-01 00:00:13.494444444,13.494444444444444,-0.2154605148391226,0.3948465944730259
2000-01-01 00:00:13.513888888,13.51388888888889,-0.1386839921502796,0.1891629160544475
2000-01-01 00:00:13.533333333,13.533333333333331,-0.0619074694614366,0.2078614322743183
2000-01-01 00:00:13.552777777,13.552777777777775,-0.007067096112263,0.1891629160544475
2000-01-01 00:00:13.572222222,13.572222222222225,-0.007067096112263,0.2639569809339306
2000-01-01 00:00:13.591666666,13.591666666666669,-0.0290032454519324,0.2452584647140598
2000-01-01 00:00:13.611111111,13.61111111111111,0.0477732772369105,0.226559948494189
2000-01-01 00:00:13.630555555,13.630555555555556,0.0916455759162493,0.151765883614706
2000-01-01 00:00:13.650000000,13.65,0.1793901732749271,0.2078614322743183
2000-01-01 00:00:13.669444444,13.669444444444444,0.4426239653509602,0.1891629160544475
2000-01-01 00:00:13.688888888,13.68888888888889,1.2871657149282334,-0.7270643787192198
2000-01-01 00:00:13.708333333,13.708333333333334,2.3620370325720357,-2.970886325103711
2000-01-01 00:00:13.727777777,13.727777777777778,3.4807806488951765,-4.111495814515828
2000-01-01 00:00:13.747222222,13.747222222222222,3.3710999021968293,-3.251364068401773
2000-01-01 00:00:13.766666666,13.766666666666667,2.8665684673844325,-1.344115413974955
2000-01-01 00:00:13.786111111,13.786111111111111,2.58139852596873,-0.9327480571377984
2000-01-01 00:00:13.805555555,13.805555555555555,0.2451986212939354,0.1143688511749644
2000-01-01 00:00:13.825000000,13.825,-0.665151576302346,0.9745005972890196
2000-01-01 00:00:13.844444444,13.844444444444443,-0.972257667057718,1.180184275707598
2000-01-01 00:00:13.863888888,13.863888888888887,-1.169683011114743,1.4606620190056594
2000-01-01 00:00:13.883333333,13.883333333333333,-1.3012999071527596,1.8533308596229456
2000-01-01 00:00:13.902777777,13.90277777777778,-1.4548529525304454,2.2273011840203605
2000-01-01 00:00:13.922222222,13.922222222222222,-1.5645336992287926,2.526477443538293
2000-01-01 00:00:13.941666666,13.941666666666666,-1.6413102219176356,2.5638744759780345
2000-01-01 00:00:13.961111111,13.961111111111112,-1.520661400549454,2.0029189893819117
2000-01-01 00:00:13.980555555,13.980555555555556,-1.0709703390862304,1.2362798243672102
2000-01-01 00:00:14.000000000,14.0,-0.51159853092466,0.5631332404518627
2000-01-01 00:00:14.019444444,14.019444444444444,-0.0399713201217672,0.2452584647140598
2000-01-01 00:00:14.038888888,14.03888888888889,0.1135817252559188,0.1891629160544475
2000-01-01 00:00:14.058333333,14.058333333333334,0.0806775012464146,0.1704643998345767
2000-01-01 00:00:14.077777777,14.077777777777778,0.0477732772369105,0.151765883614706
2000-01-01 00:00:14.097222222,14.097222222222223,0.025837127897241,0.0956703349550937
2000-01-01 00:00:14.116666666,14.116666666666667,0.1135817252559188,0.1891629160544475
2000-01-01 00:00:14.136111111,14.136111111111113,0.1903582479447618,0.2078614322743183
2000-01-01 00:00:14.155555555,14.155555555555557,0.2561666959637701,0.2452584647140598
2000-01-01 00:00:14.175000000,14.175,0.2451986212939354,0.1330673673948352
2000-01-01 00:00:14.194444444,14.194444444444445,0.2342305466241007,0.0956703349550937
2000-01-01 00:00:14.213888888,14.213888888888889,0.2013263226145965,0.0582733025153521
2000-01-01 00:00:14.233333333,14.233333333333334,0.2342305466241007,0.0021777538557399
2000-01-01 00:00:14.252777777,14.252777777777778,0.3110070693129437,0.0395747862954814
2000-01-01 00:00:14.272222222,14.272222222222222,0.3110070693129437,0.0582733025153521
2000-01-01 00:00:14.291666666,14.291666666666666,0.3658474426621173,0.1330673673948352
2000-01-01 00:00:14.311111111,14.311111111111112,0.6290812347381505,0.1143688511749644
2000-01-01 00:00:14.330555555,14.330555555555556,0.5523047120493074,-0.2222044407827092
2000-01-01 00:00:14.350000000,14.35,0.3219751439827784,-0.1287118596833554
2000-01-01 00:00:14.369444444,14.369444444444444,0.3548793679922825,-0.1287118596833554
2000-01-01 00:00:14.388888888,14.38888888888889,0.3329432186526131,-0.1287118596833554
2000-01-01 00:00:14.408333333,14.408333333333331,0.2232624719542659,-0.2782999894423215
2000-01-01 00:00:14.427777777,14.427777777777775,2.9323769154034407,-1.4937035437339212
2000-01-01 00:00:14.447222222,14.447222222222225,1.3529741629472416,-0.801858443598703
2000-01-01 00:00:14.466666666,14.466666666666669,0.1903582479447618,-0.24090295700258
2000-01-01 00:00:14.486111111,14.48611111111111,0.1245497999257535,0.0769718187352229
2000-01-01 00:00:14.505555555,14.505555555555556,0.1026136505860841,0.1891629160544475
2000-01-01 00:00:14.525000000,14.525,0.1135817252559188,0.1330673673948352
2000-01-01 00:00:14.544444444,14.544444444444444,0.1026136505860841,0.1143688511749644
2000-01-01 00:00:14.563888888,14.56388888888889,0.2122943972844312,-0.0539177948038723
2000-01-01 00:00:14.583333333,14.583333333333334,0.3439112933224478,-0.2035059245628385
2000-01-01 00:00:14.602777777,14.602777777777778,0.607145085398481,-0.4652851516410292
2000-01-01 00:00:14.622222222,14.622222222222222,0.8703788774745143,-0.7831599273788321
2000-01-01 00:00:14.641666666,14.641666666666667,0.9800596241728614,-1.0449391544570228
2000-01-01 00:00:14.661111111,14.661111111111111,1.067804221531539,-1.1010347031166352
2000-01-01 00:00:14.680555555,14.680555555555555,0.9142511761538532,-0.6522703138397368
2000-01-01 00:00:14.700000000,14.7,0.5742408613889769,-0.0913148272436139
2000-01-01 00:00:14.719444444,14.719444444444443,0.3110070693129437,0.226559948494189
2000-01-01 00:00:14.738888888,14.738888888888887,0.1245497999257535,0.4135451106928967
2000-01-01 00:00:14.758333333,14.758333333333333,0.1355178745955882,0.3948465944730259
2000-01-01 00:00:14.777777777,14.77777777777778,0.1245497999257535,0.3761480782531551
2000-01-01 00:00:14.797222222,14.797222222222222,0.1245497999257535,0.3013540133736721
2000-01-01 00:00:14.816666666,14.816666666666666,0.1574540239352576,0.2639569809339306
2000-01-01 00:00:14.836111111,14.836111111111112,0.1793901732749271,0.3200525295935428
2000-01-01 00:00:14.855555555,14.855555555555556,0.1135817252559188,0.3013540133736721
2000-01-01 00:00:14.875000000,14.875,0.1684220986050923,0.3761480782531551
2000-01-01 00:00:14.894444444,14.894444444444444,0.3329432186526131,0.3948465944730259
2000-01-01 00:00:14.913888888,14.91388888888889,0.4097197413414561,0.0208762700756106
2000-01-01 00:00:14.933333333,14.933333333333334,0.1574540239352576,0.1704643998345767
2000-01-01 00:00:14.952777777,14.952777777777778,0.3110070693129437,0.0208762700756106
2000-01-01 00:00:14.972222222,14.972222222222223,1.2432934162488944,-1.344115413974955
2000-01-01 00:00:14.991666666,14.991666666666667,2.1975159125245147,-3.382253681940868
2000-01-01 00:00:15.011111111,15.011111111111113,3.458844499555507,-4.65375278489208
2000-01-01 00:00:15.030555555,15.030555555555557,4.2485458757836065,-4.3545765253741475
2000-01-01 00:00:15.050000000,15.05,4.062088606396417,-2.297739741188364
2000-01-01 00:00:15.069444444,15.069444444444445,0.0477732772369105,0.3387510458134136
2000-01-01 00:00:15.088888888,15.088888888888889,-0.51159853092466,1.0492946621685026
2000-01-01 00:00:15.108333333,15.108333333333334,-0.7638642483308584,1.3858679541261765
2000-01-01 00:00:15.127777777,15.127777777777778,-0.8735449950292056,1.4980590514454009
2000-01-01 00:00:15.147222222,15.147222222222222,-0.972257667057718,1.7785367947434625
2000-01-01 00:00:15.166666666,15.166666666666666,-1.0709703390862304,2.0590145380415237
2000-01-01 00:00:15.186111111,15.186111111111112,-1.1477468617750737,2.4516833786588097
2000-01-01 00:00:15.205555555,15.205555555555556,-1.1916191604544124,2.750859638176742
2000-01-01 00:00:15.225000000,15.225,-1.1806510857845776,2.69476408951713
2000-01-01 00:00:15.244444444,15.244444444444444,-1.0600022644163958,2.302095248899844
2000-01-01 00:00:15.263888888,15.26388888888889,-0.7419280989911891,1.6289486649844962
2000-01-01 00:00:15.283333333,15.283333333333331,-0.4019177842263128,0.9184050486294072
2000-01-01 00:00:15.302777777,15.302777777777775,-0.1277159174804449,0.6379273053313459
2000-01-01 00:00:15.322222222,15.322222222222225,-0.0509393947916019,0.5257362080121213
2000-01-01 00:00:15.341666666,15.341666666666669,-0.083843618801106,0.544434724231992
2000-01-01 00:00:15.361111111,15.36111111111111,-0.0728755441312713,0.4322436269127674
2000-01-01 00:00:15.380555555,15.380555555555556,-0.0509393947916019,0.4135451106928967
2000-01-01 00:00:15.400000000,15.4,0.0806775012464146,0.2452584647140598
2000-01-01 00:00:15.419444444,15.419444444444444,0.6619854587476546,-0.4278881192012876
2000-01-01 00:00:15.438888888,15.43888888888889,1.8684736724294733,-1.979864965450561
2000-01-01 00:00:15.458333333,15.458333333333334,3.042057662101788,-3.232665552181902
2000-01-01 00:00:15.477777777,15.477777777777778,3.4149722008761683,-2.858695227784487
2000-01-01 00:00:15.497222222,15.497222222222222,2.8336642433749284,-1.1010347031166352
2000-01-01 00:00:15.516666666,15.516666666666667,2.4826858539402172,-0.8205569598185737
2000-01-01 00:00:15.536111111,15.536111111111111,0.3110070693129437,0.226559948494189
2000-01-01 00:00:15.555555555,15.555555555555555,-0.4348220082358169,0.862309499969795
2000-01-01 00:00:15.575000000,15.575,-0.8735449950292056,1.254978340587081
2000-01-01 00:00:15.594444444,15.594444444444443,-1.0819384137560653,1.329772405466564
2000-01-01 00:00:15.613888888,15.613888888888887,-1.2574276084734206,1.5167575676652718
2000-01-01 00:00:15.633333333,15.633333333333333,-1.400012579181272,1.72244124608385
2000-01-01 00:00:15.652777777,15.65277777777778,-1.4109806538511067,1.9468234407222993
2000-01-01 00:00:15.672222222,15.672222222222222,-1.4987252512097844,1.9468234407222993
2000-01-01 00:00:15.691666666,15.691666666666666,-1.400012579181272,1.7037427298639791
2000-01-01 00:00:15.711111111,15.711111111111112,-1.0709703390862304,1.311073889246693
2000-01-01 00:00:15.730555555,15.730555555555556,-0.6870877256420155,0.7314198864306997
2000-01-01 00:00:15.750000000,15.75,-0.3251412615374698,0.469640659352509
2000-01-01 00:00:15.769444444,15.769444444444444,-0.1825562908296185,0.3574495620332844
2000-01-01 00:00:15.788888888,15.78888888888889,-0.160620141489949,0.3761480782531551
2000-01-01 00:00:15.808333333,15.808333333333334,-0.1715882161597837,0.3761480782531551
2000-01-01 00:00:15.827777777,15.827777777777778,-0.1935243654994532,0.3200525295935428
2000-01-01 00:00:15.847222222,15.847222222222223,-0.083843618801106,0.226559948494189
2000-01-01 00:00:15.866666666,15.866666666666667,-0.0948116934709407,0.2639569809339306
2000-01-01 00:00:15.886111111,15.886111111111113,-0.007067096112263,0.2639569809339306
2000-01-01 00:00:15.905555555,15.905555555555557,0.0039009785575716,0.3013540133736721
2000-01-01 00:00:15.925000000,15.925,0.0148690532274063,0.2452584647140598
2000-01-01 00:00:15.944444444,15.944444444444445,-0.007067096112263,0.2078614322743183
2000-01-01 00:00:15.963888888,15.963888888888889,-0.0290032454519324,0.1143688511749644
2000-01-01 00:00:15.983333333,15.983333333333334,0.0039009785575716,0.1330673673948352
2000-01-01 00:00:16.002777777,16.002777777777776,0.0477732772369105,0.1704643998345767
2000-01-01 00:00:16.022222222,16.022222222222222,0.0368052025670758,0.2078614322743183
2000-01-01 00:00:16.041666666,16.041666666666668,0.0368052025670758,0.1704643998345767
2000-01-01 00:00:16.061111111,16.06111111111111,-0.007067096112263,0.0769718187352229
2000-01-01 00:00:16.080555555,16.080555555555556,0.0587413519067452,0.0582733025153521
2000-01-01 00:00:16.100000000,16.1,0.0916455759162493,0.0956703349550937
2000-01-01 00:00:16.119444444,16.119444444444444,0.1135817252559188,0.1330673673948352
2000-01-01 00:00:16.138888888,16.13888888888889,0.1464859492654229,0.1704643998345767
2000-01-01 00:00:16.158333333,16.158333333333335,0.0806775012464146,0.151765883614706
2000-01-01 00:00:16.177777777,16.177777777777777,0.0697094265765799,0.1330673673948352
2000-01-01 00:00:16.197222222,16.197222222222223,0.0477732772369105,0.151765883614706
2000-01-01 00:00:16.216666666,16.21666666666667,0.0916455759162493,0.1704643998345767
2000-01-01 00:00:16.236111111,16.23611111111111,0.1903582479447618,0.3761480782531551
2000-01-01 00:00:16.255555555,16.255555555555556,0.3987516666716214,0.1891629160544475
2000-01-01 00:00:16.274999999,16.275,0.2890709199732743,0.0395747862954814
2000-01-01 00:00:16.294444444,16.294444444444444,0.0916455759162493,0.151765883614706
2000-01-01 00:00:16.313888888,16.31388888888889,0.0148690532274063,0.0395747862954814
2000-01-01 00:00:16.333333333,16.333333333333332,0.0477732772369105,0.1143688511749644
2000-01-01 00:00:16.352777777,16.352777777777778,0.0477732772369105,0.0208762700756106
2000-01-01 00:00:16.372222222,16.372222222222224,1.5613675816741013,-0.7083658624993491
2000-01-01 00:00:16.391666666,16.391666666666666,3.338195678187325,-0.6148732813999953
2000-01-01 00:00:16.411111111,16.41111111111111,-0.007067096112263,-0.3904910867615461
2000-01-01 00:00:16.430555555,16.430555555555557,-0.1057797681407755,0.1891629160544475
2000-01-01 00:00:16.450000000,16.45,-0.2154605148391226,0.2078614322743183
2000-01-01 00:00:16.469444444,16.469444444444445,-0.2044924401692879,0.2639569809339306
2000-01-01 00:00:16.488888888,16.48888888888889,-0.1715882161597837,0.2639569809339306
2000-01-01 00:00:16.508333333,16.508333333333333,-0.160620141489949,0.1891629160544475
2000-01-01 00:00:16.527777777,16.52777777777778,-0.160620141489949,0.0582733025153521
2000-01-01 00:00:16.547222222,16.54722222222222,-0.083843618801106,-0.0726163110237431
2000-01-01 00:00:16.566666666,16.566666666666666,0.1355178745955882,-0.2222044407827092
2000-01-01 00:00:16.586111111,16.586111111111112,0.2671347706336048,-0.4652851516410292
2000-01-01 00:00:16.605555555,16.605555555555554,0.4426239653509602,-0.6148732813999953
2000-01-01 00:00:16.625000000,16.625,0.5194004880398033,-0.7457628949390906
2000-01-01 00:00:16.644444444,16.644444444444446,0.5852089360588116,-0.7083658624993491
2000-01-01 00:00:16.663888888,16.663888888888888,0.4755281893604644,-0.4091896029814169
2000-01-01 00:00:16.683333333,16.683333333333334,0.2561666959637701,0.0582733025153521
2000-01-01 00:00:16.702777777,16.70277777777778,-0.007067096112263,0.4322436269127674
2000-01-01 00:00:16.722222222,16.72222222222222,-0.083843618801106,0.5631332404518627
2000-01-01 00:00:16.741666666,16.741666666666667,-0.160620141489949,0.5818317566717336
2000-01-01 00:00:16.761111111,16.761111111111113,-0.2044924401692879,0.5257362080121213
2000-01-01 00:00:16.780555555,16.780555555555555,-0.1715882161597837,0.5070376917922506
2000-01-01 00:00:16.800000000,16.8,-0.1386839921502796,0.4135451106928967
2000-01-01 00:00:16.819444444,16.819444444444446,-0.1277159174804449,0.4509421431326382
2000-01-01 00:00:16.838888888,16.83888888888889,-0.1386839921502796,0.4509421431326382
2000-01-01 00:00:16.858333333,16.858333333333334,-0.1167478428106102,0.5070376917922506
2000-01-01 00:00:16.877777777,16.877777777777776,0.0587413519067452,0.6940228539909581
2000-01-01 00:00:16.897222222,16.897222222222222,0.4974643387001338,0.0208762700756106
2000-01-01 00:00:16.916666666,16.916666666666668,1.265229565588564,-1.6432916734928873
2000-01-01 00:00:16.936111111,16.93611111111111,2.153643613845176,-3.4196507143806096
2000-01-01 00:00:16.955555555,16.955555555555556,3.206578782149309,-4.560260203792726
2000-01-01 00:00:16.975000000,16.975,2.7897919446955894,-3.232665552181902
2000-01-01 00:00:16.994444444,16.994444444444444,2.16461168851501,-0.9888436057974104
2000-01-01 00:00:17.013888888,17.01388888888889,1.8246013737501343,-0.558777732740383
2000-01-01 00:00:17.033333333,17.033333333333335,-0.0399713201217672,0.4322436269127674
2000-01-01 00:00:17.052777777,17.052777777777777,-1.0929064884259,1.4045664703460472
2000-01-01 00:00:17.072222222,17.072222222222223,-1.3451722058320985,1.72244124608385
2000-01-01 00:00:17.091666666,17.09166666666667,-1.4987252512097844,1.9468234407222993
2000-01-01 00:00:17.111111111,17.11111111111111,-1.6632463712573051,2.245999700240231
2000-01-01 00:00:17.130555555,17.130555555555556,-1.8167994166349912,2.6199700246376465
2000-01-01 00:00:17.149999999,17.15,-1.8826078646539992,2.993940349035062
2000-01-01 00:00:17.169444444,17.169444444444444,-1.981320536682512,3.2183225436735112
2000-01-01 00:00:17.188888888,17.18888888888889,-2.003256686022181,3.0500358976946744
2000-01-01 00:00:17.208333333,17.208333333333332,-1.8387355659746607,2.414286346219068
2000-01-01 00:00:17.227777777,17.227777777777778,-1.4329168031907762,1.6102501487646257
2000-01-01 00:00:17.247222222,17.247222222222224,-0.939353443048214,1.0118976297287612
2000-01-01 00:00:17.266666666,17.266666666666666,-0.7090238749816848,0.9184050486294072
2000-01-01 00:00:17.286111111,17.28611111111111,-0.6761196509721807,0.9184050486294072
2000-01-01 00:00:17.305555555,17.305555555555557,-0.6541835016325113,0.8997065324095366
2000-01-01 00:00:17.325000000,17.325,-0.7638642483308584,0.8810080161896657
2000-01-01 00:00:17.344444444,17.344444444444445,-0.8406407710197015,0.9931991135088905
2000-01-01 00:00:17.363888888,17.36388888888889,-0.6870877256420155,1.030596145948632
2000-01-01 00:00:17.383333333,17.383333333333333,-0.4019177842263128,1.1240887270479856
2000-01-01 00:00:17.402777777,17.40277777777778,-0.2044924401692879,0.9184050486294072
2000-01-01 00:00:17.422222222,17.422222222222224,-0.1277159174804449,0.862309499969795
2000-01-01 00:00:17.441666666,17.441666666666666,-0.0728755441312713,0.8062139513101827
2000-01-01 00:00:17.461111111,17.461111111111112,0.1464859492654229,0.1891629160544475
2000-01-01 00:00:17.480555555,17.480555555555554,1.1226445948807129,-2.110754578989656
2000-01-01 00:00:17.500000000,17.5,2.460749704600548,-4.130194330735699
2000-01-01 00:00:17.519444444,17.519444444444446,3.382067976866664,-4.3358780091542775
2000-01-01 00:00:17.538888888,17.538888888888888,2.8665684673844325,-2.0359605141101733
2000-01-01 00:00:17.558333333,17.558333333333334,2.2962285845530275,-0.633571797619866
2000-01-01 00:00:17.577777777,17.57777777777778,1.0129638481823655,0.151765883614706
2000-01-01 00:00:17.597222222,17.59722222222222,-1.246459533803586,1.815933827183204
2000-01-01 00:00:17.616666666,17.616666666666667,-1.5316294752192885,2.3207937651197144
2000-01-01 00:00:17.636111111,17.636111111111113,-1.630342147247801,2.975241832815191
2000-01-01 00:00:17.655555555,17.655555555555555,-1.7180867446064787,2.69476408951713
2000-01-01 00:00:17.675000000,17.675,-1.8826078646539992,2.676065573297259
2000-01-01 00:00:17.694444444,17.694444444444446,-2.123905507390363,2.900447767935708
2000-01-01 00:00:17.713888888,17.71388888888889,-2.1568097313998673,3.0500358976946744
2000-01-01 00:00:17.733333333,17.733333333333334,-2.014224760692016,2.881749251715837
2000-01-01 00:00:17.752777777,17.752777777777776,-1.729054819276313,2.2646982164601024
2000-01-01 00:00:17.772222222,17.772222222222222,-1.125810712435404,1.1988827919274687
2000-01-01 00:00:17.791666666,17.791666666666668,-0.665151576302346,0.226559948494189
2000-01-01 00:00:17.811111111,17.81111111111111,-0.4786943069151558,-0.1287118596833554
2000-01-01 00:00:17.830555555,17.830555555555556,-0.4896623815849905,-0.1100133434634846
2000-01-01 00:00:17.850000000,17.85,-0.6432154269626765,-0.0165207623641308
2000-01-01 00:00:17.869444444,17.869444444444444,-0.6870877256420155,0.1704643998345767
2000-01-01 00:00:17.888888888,17.88888888888889,-0.7638642483308584,0.151765883614706
2000-01-01 00:00:17.908333333,17.908333333333335,-0.7748323230006932,0.1704643998345767
2000-01-01 00:00:17.927777777,17.927777777777777,-0.7419280989911891,0.1143688511749644
2000-01-01 00:00:17.947222222,17.947222222222223,-0.7419280989911891,-0.0352192785840016
2000-01-01 00:00:17.966666666,17.96666666666667,-0.6870877256420155,-0.0165207623641308
2000-01-01 00:00:17.986111111,17.98611111111111,-0.6761196509721807,-0.0165207623641308
2000-01-01 00:00:18.005555555,18.005555555555556,-0.6103112029531724,0.0395747862954814
2000-01-01 00:00:18.025000000,18.025,-0.5554708296039989,0.1704643998345767
2000-01-01 00:00:18.044444444,18.044444444444444,-0.5664389042738336,0.0021777538557399
2000-01-01 00:00:18.063888888,18.06388888888889,-0.588375053613503,-0.1661088921230969
2000-01-01 00:00:18.083333333,18.083333333333332,-0.5225666055944947,-0.2969985056621923
2000-01-01 00:00:18.102777777,18.102777777777774,-0.3580454855469739,-0.3717925705416753
2000-01-01 00:00:18.122222222,18.122222222222224,-0.1935243654994532,-0.2969985056621923
2000-01-01 00:00:18.141666666,18.141666666666666,0.0477732772369105,-0.4652851516410292
2000-01-01 00:00:18.161111111,18.16111111111111,-0.0180351707820977,-0.7457628949390906
2000-01-01 00:00:18.180555555,18.180555555555557,-0.2812689628581309,-0.6522703138397368
2000-01-01 00:00:18.200000000,18.2,-0.3361093362073045,-0.5400792165205123
2000-01-01 00:00:18.219444444,18.219444444444445,-0.3251412615374698,-0.4652851516410292
2000-01-01 00:00:18.238888888,18.23888888888889,-0.3361093362073045,-0.5213807003006414
2000-01-01 00:00:18.258333333,18.258333333333333,0.5413366373794727,-1.344115413974955
2000-01-01 00:00:18.277777777,18.27777777777778,3.4807806488951765,-1.6432916734928873
2000-01-01 00:00:18.297222222,18.297222222222224,-0.2593328135184615,-1.0449391544570228
2000-01-01 00:00:18.316666666,18.316666666666663,-0.083843618801106,-0.7083658624993491
2000-01-01 00:00:18.336111111,18.336111111111112,-0.3251412615374698,-0.6148732813999953
2000-01-01 00:00:18.355555555,18.35555555555555,-0.160620141489949,-0.8205569598185737
2000-01-01 00:00:18.375000000,18.375,-0.2264285895089573,-0.7457628949390906
2000-01-01 00:00:18.394444444,18.39444444444445,-0.6761196509721807,-0.6896673462794783
2000-01-01 00:00:18.413888888,18.413888888888888,-0.3580454855469739,-0.7831599273788321
2000-01-01 00:00:18.433333333,18.433333333333337,-0.2044924401692879,-0.7457628949390906
2000-01-01 00:00:18.452777777,18.45277777777778,0.0587413519067452,-0.7644614111589614
2000-01-01 00:00:18.472222222,18.47222222222222,0.2342305466241007,-1.269321349095472
2000-01-01 00:00:18.491666666,18.491666666666667,0.4097197413414561,-1.531100576173663
2000-01-01 00:00:18.511111111,18.511111111111113,0.3329432186526131,-1.531100576173663
2000-01-01 00:00:18.530555555,18.530555555555555,0.3329432186526131,-1.0636376706768935
2000-01-01 00:00:18.550000000,18.55,0.0039009785575716,-0.3904910867615461
2000-01-01 00:00:18.569444444,18.569444444444446,0.1464859492654229,-0.1100133434634846
2000-01-01 00:00:18.588888888,18.58888888888889,-0.5774069789436683,0.3200525295935428
2000-01-01 00:00:18.608333333,18.608333333333334,-0.3251412615374698,0.0395747862954814
2000-01-01 00:00:18.627777777,18.627777777777776,-0.4019177842263128,-0.1287118596833554
2000-01-01 00:00:18.647222222,18.647222222222226,-0.3251412615374698,-0.1474103759032262
2000-01-01 00:00:18.666666666,18.666666666666668,-0.083843618801106,0.0395747862954814
2000-01-01 00:00:18.686111111,18.68611111111111,0.1135817252559188,0.0021777538557399
2000-01-01 00:00:18.705555555,18.705555555555556,0.2671347706336048,-0.315697021882063
2000-01-01 00:00:18.725000000,18.725,-0.5335346802643294,0.0021777538557399
2000-01-01 00:00:18.744444444,18.744444444444444,-0.4896623815849905,-0.1661088921230969
2000-01-01 00:00:18.763888888,18.76388888888889,-0.5664389042738336,-0.0726163110237431
2000-01-01 00:00:18.783333333,18.783333333333335,-0.3141731868676351,-0.0913148272436139
2000-01-01 00:00:18.802777777,18.802777777777777,1.1555488188902168,-2.4847249033870717
2000-01-01 00:00:18.822222222,18.822222222222223,5.2576087454084,-4.3171794929344065
2000-01-01 00:00:18.841666666,18.84166666666667,0.2232624719542659,-1.0449391544570228
2000-01-01 00:00:18.861111111,18.86111111111111,-0.5554708296039989,-0.1474103759032262
2000-01-01 00:00:18.880555555,18.880555555555556,-0.1935243654994532,-0.0539177948038723
2000-01-01 00:00:18.900000000,18.9,-0.8077365470101973,0.5257362080121213
2000-01-01 00:00:18.919444444,18.919444444444444,-0.7419280989911891,-0.0913148272436139
2000-01-01 00:00:18.938888888,18.93888888888889,-0.7967684723403626,0.151765883614706
2000-01-01 00:00:18.958333333,18.958333333333332,-0.6980558003118501,0.2078614322743183
2000-01-01 00:00:18.977777777,18.977777777777774,-0.665151576302346,0.4135451106928967
2000-01-01 00:00:18.997222222,18.997222222222224,-0.7309600243213543,0.787515435090312
2000-01-01 00:00:19.016666666,19.016666666666666,-0.3470774108771392,-0.0352192785840016
2000-01-01 00:00:19.036111111,19.03611111111111,-0.1825562908296185,0.8062139513101827
2000-01-01 00:00:19.055555555,19.055555555555557,0.0039009785575716,0.0769718187352229
2000-01-01 00:00:19.075000000,19.075,0.0039009785575716,0.9931991135088905
2000-01-01 00:00:19.094444444,19.094444444444445,0.3110070693129437,0.3200525295935428
2000-01-01 00:00:19.113888888,19.11388888888889,-0.3032051121978004,3.797976546489505
2000-01-01 00:00:19.133333333,19.133333333333333,-0.3799816348866434,0.4883391755723797
2000-01-01 00:00:19.152777777,19.15277777777778,-0.2922370375279656,-1.4937035437339212
2000-01-01 00:00:19.172222222,19.172222222222224,-0.7419280989911891,0.5070376917922506
2000-01-01 00:00:19.191666666,19.191666666666663,-0.2703008881882962,-0.7083658624993491
2000-01-01 00:00:19.211111111,19.211111111111112,-0.1825562908296185,-0.1100133434634846
2000-01-01 00:00:19.230555555,19.23055555555555,0.3987516666716214,0.3200525295935428
2000-01-01 00:00:19.250000000,19.25,1.8684736724294733,-2.8960922602242283
2000-01-01 00:00:19.269444444,19.26944444444445,3.875631337009226,-5.1586127228285905
2000-01-01 00:00:19.288888888,19.288888888888888,4.30338624913278,-5.308200852587556
2000-01-01 00:00:19.308333333,19.308333333333337,3.184642632809639,-1.8863723843512072
2000-01-01 00:00:19.327777777,19.32777777777778,2.647206973987738,-1.531100576173663
2000-01-01 00:00:19.347222222,19.34722222222222,0.2232624719542659,-0.633571797619866
2000-01-01 00:00:19.366666666,19.366666666666667,-0.1386839921502796,0.619228789111475
2000-01-01 00:00:19.386111111,19.386111111111113,-0.4238539335659823,1.086691694608244
2000-01-01 00:00:19.405555555,19.405555555555555,0.0916455759162493,1.5167575676652718
2000-01-01 00:00:19.425000000,19.425,-0.7199919496515196,1.815933827183204
2000-01-01 00:00:19.444444444,19.444444444444446,-0.9832257417275528,2.3207937651197144
2000-01-01 00:00:19.463888888,19.46388888888889,-1.1477468617750737,2.5638744759780345
2000-01-01 00:00:19.483333333,19.483333333333334,-0.7748323230006932,2.3768893137793268
2000-01-01 00:00:19.502777777,19.502777777777776,-1.1148426377655694,2.077713054261394
2000-01-01 00:00:19.522222222,19.522222222222226,-0.1057797681407755,1.0118976297287612
2000-01-01 00:00:19.541666666,19.541666666666668,0.1355178745955882,0.0769718187352229
2000-01-01 00:00:19.561111111,19.56111111111111,0.2451986212939354,-0.7831599273788321
2000-01-01 00:00:19.580555555,19.580555555555556,0.2781028453034395,-0.951446573357669
2000-01-01 00:00:19.600000000,19.6,0.1793901732749271,-0.8392554760384444
2000-01-01 00:00:19.619444444,19.619444444444444,0.1793901732749271,-0.24090295700258
2000-01-01 00:00:19.638888888,19.63888888888889,-0.007067096112263,-0.2969985056621923
2000-01-01 00:00:19.658333333,19.658333333333335,-0.0399713201217672,-0.3904910867615461
2000-01-01 00:00:19.677777777,19.677777777777777,-0.0180351707820977,-0.3904910867615461
2000-01-01 00:00:19.697222222,19.697222222222223,0.0916455759162493,-0.2222044407827092
2000-01-01 00:00:19.716666666,19.71666666666667,0.2122943972844312,0.4322436269127674
2000-01-01 00:00:19.736111111,19.73611111111111,0.1464859492654229,1.1427872432678563
2000-01-01 00:00:19.755555555,19.755555555555556,0.2342305466241007,1.6289486649844962
2000-01-01 00:00:19.775000000,19.775,0.5303685627096381,1.666345697424238
2000-01-01 00:00:19.794444444,19.794444444444444,0.5084324133699686,0.0021777538557399
2000-01-01 00:00:19.813888888,19.81388888888889,0.2451986212939354,-0.6709688300596076
2000-01-01 00:00:19.833333333,19.833333333333332,0.1355178745955882,-0.7831599273788321
2000-01-01 00:00:19.852777777,19.852777777777774,0.2342305466241007,-0.5400792165205123
2000-01-01 00:00:19.872222222,19.872222222222224,0.2671347706336048,-0.4839836678608999
2000-01-01 00:00:19.891666666,19.891666666666666,0.3110070693129437,-0.5400792165205123
2000-01-01 00:00:19.911111111,19.91111111111111,3.623365619603028,-1.568497608613404
2000-01-01 00:00:19.930555555,19.930555555555557,0.4755281893604644,-0.4839836678608999
2000-01-01 00:00:19.950000000,19.95,0.3987516666716214,-0.5026821840807707
2000-01-01 00:00:19.969444444,19.969444444444445,0.1464859492654229,-0.5026821840807707
2000-01-01 00:00:19.988888888,19.98888888888889,0.1464859492654229,0.0021777538557399
2000-01-01 00:00:20.008333333,20.008333333333333,-0.007067096112263,0.0208762700756106
2000-01-01 00:00:20.027777777,20.02777777777778,0.0477732772369105,0.1330673673948352
2000-01-01 00:00:20.047222222,20.047222222222224,0.1793901732749271,-0.1474103759032262
2000-01-01 00:00:20.066666666,20.066666666666663,0.3219751439827784,-0.7270643787192198
2000-01-01 00:00:20.086111111,20.086111111111112,0.4755281893604644,-1.3067183815352137
2000-01-01 00:00:20.105555555,20.10555555555555,0.8484427281348448,-1.661990189712758
2000-01-01 00:00:20.125000000,20.125,1.2213572669092252,-1.9985634816704316
2000-01-01 00:00:20.144444444,20.14444444444445,1.1665168935600516,-1.9611664492306904
2000-01-01 00:00:20.163888888,20.163888888888888,0.6181131600683157,-1.1945272842159889
2000-01-01 00:00:20.183333333,20.183333333333337,0.2122943972844312,-0.6148732813999953
2000-01-01 00:00:20.202777777,20.20277777777778,-0.007067096112263,-0.3717925705416753
2000-01-01 00:00:20.222222222,20.22222222222222,-0.0619074694614366,-0.6148732813999953
2000-01-01 00:00:20.241666666,20.241666666666667,-0.2154605148391226,-0.6896673462794783
2000-01-01 00:00:20.261111111,20.261111111111113,-0.5225666055944947,-0.4278881192012876
2000-01-01 00:00:20.280555555,20.280555555555555,-0.818704621680032,-0.5400792165205123
2000-01-01 00:00:20.300000000,20.3,-0.1277159174804449,-0.6522703138397368
2000-01-01 00:00:20.319444444,20.319444444444446,0.2890709199732743,-0.7644614111589614
2000-01-01 00:00:20.338888888,20.33888888888889,0.0477732772369105,-0.3717925705416753
2000-01-01 00:00:20.358333333,20.358333333333334,0.1135817252559188,0.2452584647140598
2000-01-01 00:00:20.377777777,20.377777777777776,0.1245497999257535,0.226559948494189
2000-01-01 00:00:20.397222222,20.397222222222226,0.6948896827571588,0.5818317566717336
2000-01-01 00:00:20.416666666,20.416666666666668,4.149833203755094,-0.2596014732224507
2000-01-01 00:00:20.436111111,20.43611111111111,0.3548793679922825,0.4135451106928967
2000-01-01 00:00:20.455555555,20.455555555555556,0.5084324133699686,1.7411397623037208
2000-01-01 00:00:20.475000000,20.475,0.1135817252559188,1.6102501487646257
2000-01-01 00:00:20.494444444,20.494444444444444,0.0477732772369105,0.9931991135088905
2000-01-01 00:00:20.513888888,20.51388888888889,0.2232624719542659,0.9558020810691488
2000-01-01 00:00:20.533333333,20.533333333333335,0.4755281893604644,1.1427872432678563
2000-01-01 00:00:20.552777777,20.552777777777777,0.3329432186526131,1.1614857594877273
2000-01-01 00:00:20.572222222,20.572222222222223,0.3110070693129437,0.619228789111475
2000-01-01 00:00:20.591666666,20.59166666666667,0.4097197413414561,0.4135451106928967
2000-01-01 00:00:20.611111111,20.61111111111111,0.6400493094079852,0.151765883614706
2000-01-01 00:00:20.630555555,20.630555555555556,0.9690915495030268,-0.1848074083429677
2000-01-01 00:00:20.650000000,20.65,1.2103891922393903,-0.0352192785840016
2000-01-01 00:00:20.669444444,20.669444444444444,0.8813469521443489,0.8062139513101827
2000-01-01 00:00:20.688888888,20.68888888888889,0.8155385041253406,1.0492946621685026
2000-01-01 00:00:20.708333333,20.708333333333332,0.5852089360588116,1.329772405466564
2000-01-01 00:00:20.727777777,20.727777777777774,0.5194004880398033,1.1614857594877273
2000-01-01 00:00:20.747222222,20.747222222222224,0.4974643387001338,1.273676856806952
2000-01-01 00:00:20.766666666,20.766666666666666,0.4097197413414561,1.180184275707598
2000-01-01 00:00:20.786111111,20.78611111111111,0.2671347706336048,1.1988827919274687
2000-01-01 00:00:20.805555555,20.805555555555557,0.3329432186526131,1.311073889246693
2000-01-01 00:00:20.825000000,20.825,0.4755281893604644,1.2923753730268226
2000-01-01 00:00:20.844444444,20.844444444444445,0.683921608087324,0.9931991135088905
2000-01-01 00:00:20.863888888,20.86388888888889,0.376815517331952,0.7314198864306997
2000-01-01 00:00:20.883333333,20.883333333333333,0.2342305466241007,0.5631332404518627
2000-01-01 00:00:20.902777777,20.90277777777778,0.8045704294555059,0.0956703349550937
2000-01-01 00:00:20.922222222,20.922222222222224,1.6381441043629443,-1.905070900571078
2000-01-01 00:00:20.941666666,20.941666666666663,2.471717779270383,-4.3358780091542775
2000-01-01 00:00:20.961111111,20.961111111111112,4.687268862576995,-4.672451301111951
2000-01-01 00:00:20.980555555,20.98055555555555,1.6381441043629443,0.0956703349550937
2000-01-01 00:00:21.000000000,21.0,-0.3470774108771392,1.47936053522553
2000-01-01 00:00:21.019444444,21.01944444444445,-0.4567581575754864,2.3394922813395853
2000-01-01 00:00:21.038888888,21.038888888888888,-0.7419280989911891,1.9281249245024288
2000-01-01 00:00:21.058333333,21.058333333333337,-0.9174172937085444,1.0679931783883734
2000-01-01 00:00:21.077777777,21.07777777777778,-1.1806510857845776,1.5541546001050133
2000-01-01 00:00:21.097222222,21.09722222222222,-1.169683011114743,2.1525071191408776
2000-01-01 00:00:21.116666666,21.116666666666667,-1.3671083551717678,2.4703818948786807
2000-01-01 00:00:21.136111111,21.136111111111113,-1.3671083551717678,2.489080411098551
2000-01-01 00:00:21.155555555,21.155555555555555,-1.169683011114743,2.283396732679973
2000-01-01 00:00:21.175000000,21.175,-1.1806510857845776,1.9281249245024288
2000-01-01 00:00:21.194444444,21.194444444444446,-1.0490341897465612,1.1614857594877273
2000-01-01 00:00:21.213888888,21.21388888888889,-0.665151576302346,0.3574495620332844
2000-01-01 00:00:21.233333333,21.233333333333334,-0.4457900829056517,-0.0165207623641308
2000-01-01 00:00:21.252777777,21.252777777777776,-0.4896623815849905,-0.1848074083429677
2000-01-01 00:00:21.272222222,21.272222222222226,-0.6761196509721807,-0.3343955381019338
2000-01-01 00:00:21.291666666,21.291666666666668,-0.7748323230006932,-0.7083658624993491
2000-01-01 00:00:21.311111111,21.31111111111111,-0.818704621680032,-1.2319243166557303
2000-01-01 00:00:21.330555555,21.330555555555556,-0.7748323230006932,-1.531100576173663
2000-01-01 00:00:21.350000000,21.35,-0.5554708296039989,-1.4750050275140505
2000-01-01 00:00:21.369444444,21.369444444444444,-0.3141731868676351,-0.2596014732224507
2000-01-01 00:00:21.388888888,21.38888888888889,-0.160620141489949,-0.315697021882063
2000-01-01 00:00:21.408333333,21.408333333333335,-0.2483647388486268,-0.4465866354211584
2000-01-01 00:00:21.427777777,21.427777777777777,-0.5993431282833377,-0.558777732740383
2000-01-01 00:00:21.447222222,21.447222222222223,-0.8296726963498667,-0.6522703138397368
2000-01-01 00:00:21.466666666,21.46666666666667,-0.9174172937085444,-0.7083658624993491
2000-01-01 00:00:21.486111111,21.48611111111111,-0.9503215177180486,-0.8953510246980567
2000-01-01 00:00:21.505555555,21.505555555555556,-0.7858003976705279,-1.175828767996118
2000-01-01 00:00:21.525000000,21.525,2.3181647338926967,-0.7831599273788321
2000-01-01 00:00:21.544444444,21.544444444444444,-0.8845130696990403,-1.1010347031166352
2000-01-01 00:00:21.563888888,21.56388888888889,-1.169683011114743,-1.531100576173663
2000-01-01 00:00:21.583333333,21.583333333333332,-1.246459533803586,-1.568497608613404
2000-01-01 00:00:21.602777777,21.602777777777774,-1.169683011114743,-1.4937035437339212
2000-01-01 00:00:21.622222222,21.622222222222224,-1.0490341897465612,-1.3815124464146966
2000-01-01 00:00:21.641666666,21.641666666666666,-0.9941938163973876,-0.6896673462794783
2000-01-01 00:00:21.661111111,21.66111111111111,-0.9064492190387098,0.1704643998345767
2000-01-01 00:00:21.680555555,21.680555555555557,-0.8735449950292056,0.1143688511749644
2000-01-01 00:00:21.700000000,21.7,-0.6980558003118501,-0.2035059245628385
2000-01-01 00:00:21.719444444,21.719444444444445,-0.6322473522928419,-0.4278881192012876
2000-01-01 00:00:21.738888888,21.73888888888889,-0.665151576302346,-0.9888436057974104
2000-01-01 00:00:21.758333333,21.758333333333333,-0.4567581575754864,-1.4563065112941795
2000-01-01 00:00:21.777777777,21.77777777777778,-0.4677262322453211,-1.6432916734928873
2000-01-01 00:00:21.797222222,21.797222222222224,-0.588375053613503,-1.026240638237152
2000-01-01 00:00:21.816666666,21.816666666666663,-0.8296726963498667,-0.5774762489602537
2000-01-01 00:00:21.836111111,21.836111111111112,-0.9612895923878834,-0.24090295700258
2000-01-01 00:00:21.855555555,21.85555555555555,-0.9941938163973876,-0.1474103759032262
2000-01-01 00:00:21.875000000,21.875,-1.0600022644163958,-0.1661088921230969
2000-01-01 00:00:21.894444444,21.89444444444445,-0.9941938163973876,-0.2222044407827092
2000-01-01 00:00:21.913888888,21.913888888888888,-0.9612895923878834,-0.0165207623641308
2000-01-01 00:00:21.933333333,21.933333333333337,-0.7858003976705279,0.3387510458134136
2000-01-01 00:00:21.952777777,21.95277777777778,-0.5664389042738336,0.3013540133736721
2000-01-01 00:00:21.972222222,21.97222222222222,-0.6870877256420155,0.3013540133736721
2000-01-01 00:00:21.991666666,21.991666666666667,-0.9941938163973876,0.469640659352509
2000-01-01 00:00:22.011111111,22.011111111111113,-1.0929064884259,0.4322436269127674
2000-01-01 00:00:22.030555555,22.030555555555555,-1.1148426377655694,0.4883391755723797
2000-01-01 00:00:22.050000000,22.05,-1.213555309794082,0.3574495620332844
2000-01-01 00:00:22.069444444,22.069444444444446,-0.2373966641787921,-0.2222044407827092
2000-01-01 00:00:22.088888888,22.08888888888889,2.5923666006385644,1.254978340587081
2000-01-01 00:00:22.108333333,22.108333333333334,-1.3780764298416026,0.1704643998345767
2000-01-01 00:00:22.127777777,22.127777777777776,-1.0929064884259,0.3948465944730259
2000-01-01 00:00:22.147222222,22.147222222222226,-1.0819384137560653,0.5631332404518627
2000-01-01 00:00:22.166666666,22.166666666666668,-0.9832257417275528,0.6379273053313459
2000-01-01 00:00:22.186111111,22.18611111111111,-0.8735449950292056,0.787515435090312
2000-01-01 00:00:22.205555555,22.205555555555556,-0.7858003976705279,0.7688169188704412
2000-01-01 00:00:22.225000000,22.225,-0.6541835016325113,0.6940228539909581
2000-01-01 00:00:22.244444444,22.244444444444444,-0.51159853092466,0.4883391755723797
2000-01-01 00:00:22.263888888,22.26388888888889,-0.2264285895089573,0.3013540133736721
2000-01-01 00:00:22.283333333,22.283333333333335,0.0039009785575716,0.0208762700756106
2000-01-01 00:00:22.302777777,22.302777777777777,0.1903582479447618,-0.0539177948038723
2000-01-01 00:00:22.322222222,22.322222222222223,0.3000389946431089,-0.0913148272436139
2000-01-01 00:00:22.341666666,22.34166666666667,0.2671347706336048,0.3948465944730259
2000-01-01 00:00:22.361111111,22.36111111111111,0.0587413519067452,0.6005302728916043
2000-01-01 00:00:22.380555555,22.380555555555556,-0.0948116934709407,0.862309499969795
2000-01-01 00:00:22.400000000,22.4,-0.2154605148391226,1.2362798243672102
2000-01-01 00:00:22.419444444,22.419444444444444,-0.1386839921502796,1.4606620190056594
2000-01-01 00:00:22.438888888,22.43888888888889,-0.2154605148391226,1.872029375842816
2000-01-01 00:00:22.458333333,22.458333333333332,-0.160620141489949,1.6850442136441086
2000-01-01 00:00:22.477777777,22.477777777777774,-0.0948116934709407,1.5915516325447547
2000-01-01 00:00:22.497222222,22.497222222222224,0.0148690532274063,1.254978340587081
2000-01-01 00:00:22.516666666,22.516666666666666,-0.0399713201217672,1.1427872432678563
2000-01-01 00:00:22.536111111,22.53611111111111,-0.2264285895089573,1.2362798243672102
2000-01-01 00:00:22.555555555,22.555555555555557,-0.1935243654994532,1.1614857594877273
2000-01-01 00:00:22.575000000,22.575,-0.1057797681407755,0.9931991135088905
2000-01-01 00:00:22.594444444,22.594444444444445,0.025837127897241,1.0118976297287612
2000-01-01 00:00:22.613888888,22.61388888888889,1.1336126695505473,0.6566258215512166
2000-01-01 00:00:22.633333333,22.633333333333333,4.566620041208814,0.787515435090312
2000-01-01 00:00:22.652777777,22.65277777777778,0.3219751439827784,0.8810080161896657
2000-01-01 00:00:22.672222222,22.672222222222224,0.1903582479447618,1.273676856806952
2000-01-01 00:00:22.691666666,22.691666666666663,0.0039009785575716,1.3858679541261765
2000-01-01 00:00:22.711111111,22.711111111111112,0.0477732772369105,1.0679931783883734
2000-01-01 00:00:22.730555555,22.73055555555555,0.0368052025670758,1.311073889246693
2000-01-01 00:00:22.750000000,22.75,0.1793901732749271,1.5354560838851423
2000-01-01 00:00:22.769444444,22.76944444444445,0.2781028453034395,1.3484709216864348
2000-01-01 00:00:22.788888888,22.788888888888888,0.3658474426621173,1.273676856806952
2000-01-01 00:00:22.808333333,22.808333333333337,0.4097197413414561,1.0492946621685026
2000-01-01 00:00:22.827777777,22.82777777777778,0.5523047120493074,0.8062139513101827
2000-01-01 00:00:22.847222222,22.84722222222222,0.8045704294555059,0.7688169188704412
2000-01-01 00:00:22.866666666,22.866666666666667,1.0239319228522,0.8249124675300534
2000-01-01 00:00:22.886111111,22.886111111111113,0.9690915495030268,1.1988827919274687
2000-01-01 00:00:22.905555555,22.905555555555555,0.9471554001633572,1.6476471812043672
2000-01-01 00:00:22.925000000,22.925,0.9361873254935223,2.0590145380415237
2000-01-01 00:00:22.944444444,22.944444444444446,0.9032831014840184,2.040316021821653
2000-01-01 00:00:22.963888888,22.96388888888889,0.8484427281348448,1.9468234407222993
2000-01-01 00:00:22.983333333,22.983333333333334,0.9690915495030268,1.96552195694217
2000-01-01 00:00:23.002777777,23.002777777777776,1.1226445948807129,2.077713054261394
2000-01-01 00:00:23.022222222,23.022222222222226,1.3310380136075723,2.021617505601782
2000-01-01 00:00:23.041666666,23.041666666666668,1.41878261096625,1.4419635027857889
2000-01-01 00:00:23.061111111,23.06111111111111,1.879441747099308,0.2452584647140598
2000-01-01 00:00:23.080555555,23.080555555555556,3.0091534380922837,-1.512402059953792
2000-01-01 00:00:23.100000000,23.1,4.69823693724683,-2.372533806067847
2000-01-01 00:00:23.119444444,23.119444444444444,3.9085355610187302,-0.315697021882063
2000-01-01 00:00:23.138888888,23.13888888888889,2.8446323180447632,1.1988827919274687
2000-01-01 00:00:23.158333333,23.158333333333335,2.351068957902201,1.4980590514454009
2000-01-01 00:00:23.177777777,23.177777777777777,0.5413366373794727,2.432984862438939
2000-01-01 00:00:23.197222222,23.197222222222223,0.0697094265765799,2.881749251715837
2000-01-01 00:00:23.216666666,23.21666666666667,-0.0948116934709407,3.162226995013899
2000-01-01 00:00:23.236111111,23.23611111111111,-0.1825562908296185,3.4427047383119604
2000-01-01 00:00:23.255555555,23.255555555555556,-0.4238539335659823,3.7231824816100216
2000-01-01 00:00:23.275000000,23.275,-0.6870877256420155,3.9288661600286
2000-01-01 00:00:23.294444444,23.294444444444444,-0.8625769203593708,3.947564676248471
2000-01-01 00:00:23.313888888,23.31388888888889,-0.7858003976705279,3.704483965390151
2000-01-01 00:00:23.333333333,23.333333333333332,-0.4896623815849905,3.2183225436735112
2000-01-01 00:00:23.352777777,23.352777777777774,0.1464859492654229,2.769558154396613
2000-01-01 00:00:23.372222222,23.372222222222224,0.8594108028046795,2.414286346219068
2000-01-01 00:00:23.391666666,23.391666666666666,1.2432934162488944,2.3207937651197144
2000-01-01 00:00:23.411111111,23.41111111111111,1.374910312286911,2.283396732679973
2000-01-01 00:00:23.430555555,23.430555555555557,1.3310380136075723,2.3394922813395853
2000-01-01 00:00:23.450000000,23.45,1.3968464616265803,2.4516833786588097
2000-01-01 00:00:23.469444444,23.469444444444445,1.451686834975754,2.489080411098551
2000-01-01 00:00:23.488888888,23.48888888888889,1.4626549096455888,2.507778927318422
2000-01-01 00:00:23.508333333,23.508333333333333,1.4297506856360849,2.4703818948786807
2000-01-01 00:00:23.527777777,23.52777777777778,1.4407187603059195,2.526477443538293
2000-01-01 00:00:23.547222222,23.547222222222224,1.6052398803534402,2.69476408951713
2000-01-01 00:00:23.566666666,23.566666666666663,1.5613675816741013,2.414286346219068
2000-01-01 00:00:23.586111111,23.586111111111112,1.342006088277407,2.3768893137793268
2000-01-01 00:00:23.605555555,23.60555555555555,1.451686834975754,2.4516833786588097
2000-01-01 00:00:23.625000000,23.625,1.4297506856360849,2.302095248899844
2000-01-01 00:00:23.644444444,23.64444444444445,1.4736229843154236,2.115110086701136
2000-01-01 00:00:23.663888888,23.663888888888888,1.495559133655093,1.815933827183204
2000-01-01 00:00:23.683333333,23.683333333333337,3.16270648346997,1.7598382785235915
2000-01-01 00:00:23.702777777,23.70277777777778,3.963375934367904,2.6199700246376465
2000-01-01 00:00:23.722222222,23.72222222222222,1.4297506856360849,1.8533308596229456
2000-01-01 00:00:23.741666666,23.741666666666667,1.4736229843154236,2.115110086701136
2000-01-01 00:00:23.761111111,23.761111111111113,1.451686834975754,2.115110086701136
2000-01-01 00:00:23.780555555,23.780555555555555,1.572335656343936,2.133808602921007
2000-01-01 00:00:23.800000000,23.8,1.6271760296931097,2.133808602921007
2000-01-01 00:00:23.819444444,23.819444444444446,1.6052398803534402,2.115110086701136
2000-01-01 00:00:23.838888888,23.83888888888889,1.6052398803534402,2.133808602921007
2000-01-01 00:00:23.858333333,23.858333333333334,1.6710483283724484,2.021617505601782
2000-01-01 00:00:23.877777777,23.877777777777776,1.758792925731126,1.666345697424238
2000-01-01 00:00:23.897222222,23.897222222222226,2.0220267178071594,1.423264986565918
2000-01-01 00:00:23.916666666,23.916666666666668,2.18654783785468,1.1988827919274687
2000-01-01 00:00:23.936111111,23.93611111111111,2.2413882112038537,1.2175813081473394
2000-01-01 00:00:23.955555555,23.955555555555556,2.1755797631848455,1.5354560838851423
2000-01-01 00:00:23.975000000,23.975,1.8684736724294733,1.8907278920626869
2000-01-01 00:00:23.994444444,23.994444444444444,1.6052398803534402,2.0590145380415237
2000-01-01 00:00:24.013888888,24.01388888888889,1.4845910589852582,2.133808602921007
2000-01-01 00:00:24.033333333,24.033333333333335,1.495559133655093,2.245999700240231
2000-01-01 00:00:24.052777777,24.052777777777777,1.4626549096455888,2.3768893137793268
2000-01-01 00:00:24.072222222,24.072222222222223,1.5503995070042669,2.489080411098551
2000-01-01 00:00:24.091666666,24.09166666666667,1.6600802537026138,2.432984862438939
2000-01-01 00:00:24.111111111,24.11111111111111,1.6052398803534402,2.245999700240231
2000-01-01 00:00:24.130555555,24.130555555555556,1.374910312286911,2.096411570481265
2000-01-01 00:00:24.150000000,24.15,1.2213572669092252,2.1525071191408776
2000-01-01 00:00:24.169444444,24.169444444444444,1.1555488188902168,2.20860266780049
2000-01-01 00:00:24.188888888,24.18888888888889,1.067804221531539,2.2273011840203605
2000-01-01 00:00:24.208333333,24.208333333333332,0.8265065787951753,1.8907278920626869
2000-01-01 00:00:24.227777777,24.227777777777774,2.471717779270383,2.0590145380415237
2000-01-01 00:00:24.247222222,24.247222222222224,2.9543130647431104,2.769558154396613
2000-01-01 00:00:24.266666666,24.266666666666666,0.7826342801158365,1.9842204731620408
2000-01-01 00:00:24.286111111,24.28611111111111,0.760698130776167,2.115110086701136
2000-01-01 00:00:24.305555555,24.305555555555557,0.7058577574269934,2.133808602921007
2000-01-01 00:00:24.325000000,24.325,0.7826342801158365,2.0590145380415237
2000-01-01 00:00:24.344444444,24.344444444444445,0.8155385041253406,1.9094264082825576
2000-01-01 00:00:24.363888888,24.36388888888889,0.8484427281348448,1.7972353109633332
2000-01-01 00:00:24.383333333,24.383333333333333,0.8923150268141836,1.6850442136441086
2000-01-01 00:00:24.402777777,24.40277777777778,1.0129638481823655,1.6102501487646257
2000-01-01 00:00:24.422222222,24.422222222222224,1.067804221531539,1.3671694379063055
2000-01-01 00:00:24.441666666,24.441666666666663,1.0897403708712086,1.086691694608244
2000-01-01 00:00:24.461111111,24.461111111111112,1.1336126695505473,0.9184050486294072
2000-01-01 00:00:24.480555555,24.48055555555555,1.1774849682298862,0.9745005972890196
2000-01-01 00:00:24.500000000,24.5,1.2103891922393903,1.329772405466564
2000-01-01 00:00:24.519444444,24.51944444444445,0.9252192508236878,1.666345697424238
2000-01-01 00:00:24.538888888,24.538888888888888,0.760698130776167,1.6850442136441086
2000-01-01 00:00:24.558333333,24.558333333333337,0.5523047120493074,1.7598382785235915
2000-01-01 00:00:24.577777777,24.57777777777778,0.6181131600683157,1.5167575676652718
2000-01-01 00:00:24.597222222,24.59722222222222,0.5742408613889769,1.5167575676652718
2000-01-01 00:00:24.616666666,24.616666666666667,0.7387619814364976,1.572853116324884
2000-01-01 00:00:24.636111111,24.636111111111113,0.9690915495030268,1.5541546001050133
2000-01-01 00:00:24.655555555,24.655555555555555,0.991027698842696,1.180184275707598
2000-01-01 00:00:24.675000000,24.675,0.8045704294555059,1.086691694608244
2000-01-01 00:00:24.694444444,24.694444444444446,0.4426239653509602,1.1240887270479856
2000-01-01 00:00:24.713888888,24.71388888888889,0.3439112933224478,1.1240887270479856
2000-01-01 00:00:24.733333333,24.733333333333334,0.2671347706336048,1.1427872432678563
2000-01-01 00:00:24.752777777,24.752777777777776,0.1793901732749271,1.1053902108281148
2000-01-01 00:00:24.772222222,24.772222222222226,1.6600802537026138,1.1614857594877273
2000-01-01 00:00:24.791666666,24.791666666666668,3.042057662101788,1.329772405466564
2000-01-01 00:00:24.811111111,24.81111111111111,0.0697094265765799,0.9745005972890196
2000-01-01 00:00:24.830555555,24.830555555555556,-0.007067096112263,1.086691694608244
2000-01-01 00:00:24.850000000,24.85,-0.1057797681407755,1.0679931783883734
2000-01-01 00:00:24.869444444,24.869444444444444,-0.1277159174804449,1.030596145948632
2000-01-01 00:00:24.888888888,24.88888888888889,-0.160620141489949,0.9745005972890196
2000-01-01 00:00:24.908333333,24.908333333333335,-0.1935243654994532,0.862309499969795
2000-01-01 00:00:24.927777777,24.927777777777777,-0.0948116934709407,0.619228789111475
2000-01-01 00:00:24.947222222,24.947222222222223,0.0477732772369105,0.3948465944730259
2000-01-01 00:00:24.966666666,24.96666666666667,0.2013263226145965,0.2452584647140598
2000-01-01 00:00:24.986111111,24.98611111111111,0.2451986212939354,0.2639569809339306
2000-01-01 00:00:25.005555555,25.005555555555556,0.4097197413414561,0.3013540133736721
2000-01-01 00:00:25.025000000,25.025,0.3877835920017867,0.4322436269127674
2000-01-01 00:00:25.044444444,25.044444444444444,0.1684220986050923,0.6940228539909581
2000-01-01 00:00:25.063888888,25.06388888888889,-0.0509393947916019,0.8249124675300534
2000-01-01 00:00:25.083333333,25.083333333333332,-0.0948116934709407,0.7501184026505704
2000-01-01 00:00:25.102777777,25.102777777777774,-0.083843618801106,0.6005302728916043
2000-01-01 00:00:25.122222222,25.122222222222224,-0.0948116934709407,0.544434724231992
2000-01-01 00:00:25.141666666,25.141666666666666,-0.0728755441312713,0.3948465944730259
2000-01-01 00:00:25.161111111,25.16111111111111,0.1903582479447618,0.4509421431326382
2000-01-01 00:00:25.180555555,25.180555555555557,0.5303685627096381,-0.2222044407827092
2000-01-01 00:00:25.200000000,25.2,1.1774849682298862,-1.418909478854438
2000-01-01 00:00:25.219444444,25.219444444444445,2.340100883232366,-2.9334892926639697
2000-01-01 00:00:25.238888888,25.23888888888889,3.9304717103584,-3.625334392799188
2000-01-01 00:00:25.258333333,25.258333333333333,3.0201215127621186,-1.7741812870319826
2000-01-01 00:00:25.277777777,25.27777777777778,1.725888701721622,-0.4465866354211584
2000-01-01 00:00:25.297222222,25.297222222222224,0.5413366373794727,-0.3904910867615461
2000-01-01 00:00:25.316666666,25.316666666666663,-1.3342041311622637,0.6005302728916043
2000-01-01 00:00:25.336111111,25.336111111111112,-1.7838951926254871,0.8997065324095366
2000-01-01 00:00:25.355555555,25.35555555555555,-2.014224760692016,1.030596145948632
2000-01-01 00:00:25.375000000,25.375,-2.211650104749041,1.2923753730268226
2000-01-01 00:00:25.394444444,25.39444444444445,-2.4529477474854047,1.5354560838851423
2000-01-01 00:00:25.413888888,25.413888888888888,-2.4968200461647436,1.6289486649844962
2000-01-01 00:00:25.433333333,25.433333333333337,-2.6174688675329256,1.7037427298639791
2000-01-01 00:00:25.452777777,25.45277777777778,-2.62843694220276,1.5167575676652718
2000-01-01 00:00:25.472222222,25.47222222222222,-2.3761712247965616,1.1427872432678563
2000-01-01 00:00:25.491666666,25.491666666666667,-2.014224760692016,0.5631332404518627
2000-01-01 00:00:25.511111111,25.511111111111113,-1.4438848778606108,0.151765883614706
2000-01-01 00:00:25.530555555,25.530555555555555,-1.1038745630957347,-0.1100133434634846
2000-01-01 00:00:25.550000000,25.55,-0.9832257417275528,-0.1287118596833554
2000-01-01 00:00:25.569444444,25.569444444444446,-0.9612895923878834,-0.1661088921230969
2000-01-01 00:00:25.588888888,25.58888888888889,-0.9941938163973876,-0.1661088921230969
2000-01-01 00:00:25.608333333,25.608333333333334,-1.0161299657370568,-0.24090295700258
2000-01-01 00:00:25.627777777,25.627777777777776,-1.0600022644163958,-0.24090295700258
2000-01-01 00:00:25.647222222,25.647222222222226,-1.0490341897465612,-0.2035059245628385
2000-01-01 00:00:25.666666666,25.666666666666668,-0.7748323230006932,-0.1100133434634846
2000-01-01 00:00:25.686111111,25.68611111111111,-0.5664389042738336,-0.0726163110237431
2000-01-01 00:00:25.705555555,25.705555555555556,-0.5445027549341641,-0.3717925705416753
2000-01-01 00:00:25.725000000,25.725,-0.8625769203593708,-0.5026821840807707
2000-01-01 00:00:25.744444444,25.744444444444444,-0.9832257417275528,-0.6522703138397368
2000-01-01 00:00:25.763888888,25.76388888888889,-1.0380661150767263,-0.7457628949390906
2000-01-01 00:00:25.783333333,25.783333333333335,-1.0819384137560653,-0.8392554760384444
2000-01-01 00:00:25.802777777,25.802777777777777,-0.4567581575754864,-1.119733219336506
2000-01-01 00:00:25.822222222,25.822222222222223,2.427845480591044,-0.2596014732224507
2000-01-01 00:00:25.841666666,25.84166666666667,-1.400012579181272,-1.1010347031166352
2000-01-01 00:00:25.861111111,25.86111111111111,-1.3780764298416026,-0.8205569598185737
2000-01-01 00:00:25.880555555,25.880555555555556,-1.4548529525304454,-0.8205569598185737
2000-01-01 00:00:25.900000000,25.9,-1.3451722058320985,-0.9140495409179274
2000-01-01 00:00:25.919444444,25.919444444444444,-1.27936375781309,-0.8953510246980567
2000-01-01 00:00:25.938888888,25.93888888888889,-1.2354914591337511,-1.007542122017281
2000-01-01 00:00:25.958333333,25.958333333333332,-1.1367787871052388,-1.175828767996118
2000-01-01 00:00:25.977777777,25.977777777777774,-1.0161299657370568,-1.4376079950743088
2000-01-01 00:00:25.997222222,25.997222222222224,-0.7967684723403626,-1.755482770812112
2000-01-01 00:00:26.016666666,26.016666666666666,-0.6103112029531724,-1.9985634816704316
2000-01-01 00:00:26.036111111,26.03611111111111,-0.4677262322453211,-2.054659030330044
2000-01-01 00:00:26.055555555,26.055555555555557,-0.588375053613503,-1.7180857383723702
2000-01-01 00:00:26.075000000,26.075,-0.8625769203593708,-1.2506228328756013
2000-01-01 00:00:26.094444444,26.094444444444445,-1.169683011114743,-0.9888436057974104
2000-01-01 00:00:26.113888888,26.11388888888889,-1.2245233844639165,-0.9327480571377984
2000-01-01 00:00:26.133333333,26.133333333333333,-1.2245233844639165,-0.8392554760384444
2000-01-01 00:00:26.152777777,26.15277777777778,-1.27936375781309,-0.8392554760384444
2000-01-01 00:00:26.172222222,26.172222222222224,-1.213555309794082,-0.7270643787192198
2000-01-01 00:00:26.191666666,26.191666666666663,-1.0929064884259,-1.0636376706768935
2000-01-01 00:00:26.211111111,26.211111111111112,-1.3012999071527596,-1.2319243166557303
2000-01-01 00:00:26.230555555,26.23055555555555,-1.630342147247801,-1.1945272842159889
2000-01-01 00:00:26.250000000,26.25,-1.630342147247801,-1.1571302517762474
2000-01-01 00:00:26.269444444,26.26944444444445,-1.5755017738986274,-1.1010347031166352
2000-01-01 00:00:26.288888888,26.288888888888888,-1.7729271179556525,-1.2319243166557303
2000-01-01 00:00:26.308333333,26.308333333333337,1.6052398803534402,-0.4091896029814169
2000-01-01 00:00:26.327777777,26.32777777777778,-1.8167994166349912,-1.344115413974955
2000-01-01 00:00:26.347222222,26.34722222222222,-1.7619590432858176,-1.175828767996118
2000-01-01 00:00:26.366666666,26.366666666666667,-1.7509909686159828,-1.1945272842159889
2000-01-01 00:00:26.386111111,26.386111111111113,-1.7180867446064787,-1.2319243166557303
2000-01-01 00:00:26.405555555,26.405555555555555,-1.6742144459271395,-1.362813930194826
2000-01-01 00:00:26.425000000,26.425,-1.6742144459271395,-1.4750050275140505
2000-01-01 00:00:26.444444444,26.444444444444446,-1.5425975498891231,-1.6058946410531456
2000-01-01 00:00:26.463888888,26.46388888888889,-1.400012579181272,-1.8863723843512072
2000-01-01 00:00:26.483333333,26.483333333333334,-1.3342041311622637,-2.054659030330044
2000-01-01 00:00:26.502777777,26.502777777777776,-1.246459533803586,-2.1668501276492687
2000-01-01 00:00:26.522222222,26.522222222222226,-1.2903318324829247,-2.0920560627697857
2000-01-01 00:00:26.541666666,26.541666666666668,-1.3451722058320985,-1.736784254592241
2000-01-01 00:00:26.561111111,26.56111111111111,-1.5645336992287926,-1.4002109626345671
2000-01-01 00:00:26.580555555,26.580555555555556,-1.707118669936644,-1.344115413974955
2000-01-01 00:00:26.600000000,26.6,-1.7180867446064787,-1.2319243166557303
2000-01-01 00:00:26.619444444,26.619444444444444,-1.6413102219176356,-1.2319243166557303
2000-01-01 00:00:26.638888888,26.63888888888889,-1.6084059979081315,-1.2880198653153427
2000-01-01 00:00:26.658333333,26.658333333333335,-1.4658210272002803,-1.1945272842159889
2000-01-01 00:00:26.677777777,26.677777777777777,-1.3012999071527596,-1.4563065112941795
2000-01-01 00:00:26.697222222,26.697222222222223,-1.400012579181272,-1.5871961248332749
2000-01-01 00:00:26.716666666,26.71666666666667,-1.597437923238297,-1.4750050275140505
2000-01-01 00:00:26.736111111,26.73611111111111,-1.7180867446064787,-1.4563065112941795
2000-01-01 00:00:26.755555555,26.755555555555556,-1.6632463712573051,-1.4937035437339212
2000-01-01 00:00:26.775000000,26.775,-1.8716397899841648,-1.5871961248332749
2000-01-01 00:00:26.794444444,26.794444444444444,0.4206878160112908,-1.0449391544570228
2000-01-01 00:00:26.813888888,26.81388888888889,0.453592040020795,-1.6245931572730166
2000-01-01 00:00:26.833333333,26.833333333333332,-1.7619590432858176,-1.6993872221524997
2000-01-01 00:00:26.852777777,26.852777777777774,-1.7838951926254871,-1.512402059953792
2000-01-01 00:00:26.872222222,26.872222222222224,-1.8167994166349912,-1.512402059953792
2000-01-01 00:00:26.891666666,26.891666666666666,-1.8826078646539992,-1.4937035437339212
2000-01-01 00:00:26.911111111,26.91111111111111,-1.8935759393238345,-1.568497608613404
2000-01-01 00:00:26.930555555,26.930555555555557,-1.7619590432858176,-1.7741812870319826
2000-01-01 00:00:26.950000000,26.95,-1.6851825205969746,-1.811578319471724
2000-01-01 00:00:26.969444444,26.969444444444445,-1.5425975498891231,-1.9424679330108192
2000-01-01 00:00:26.988888888,26.98888888888889,-1.4109806538511067,-2.129453095209527
2000-01-01 00:00:27.008333333,27.008333333333333,-1.3561402805019331,-2.3164382574082345
2000-01-01 00:00:27.027777777,27.02777777777778,-1.27936375781309,-2.372533806067847
2000-01-01 00:00:27.047222222,27.047222222222224,-1.169683011114743,-2.2603427087486225
2000-01-01 00:00:27.066666666,27.066666666666663,-1.1916191604544124,-1.7928798032518534
2000-01-01 00:00:27.086111111,27.086111111111112,-1.4109806538511067,-1.4563065112941795
2000-01-01 00:00:27.105555555,27.10555555555555,-1.4987252512097844,-1.3815124464146966
2000-01-01 00:00:27.125000000,27.125,-1.553565624558958,-1.4750050275140505
2000-01-01 00:00:27.144444444,27.14444444444445,-1.4877571765399498,-1.568497608613404
2000-01-01 00:00:27.163888888,27.163888888888888,-1.3890445045114372,-1.5497990923935334
2000-01-01 00:00:27.183333333,27.183333333333337,-1.2683956831432557,-1.4376079950743088
2000-01-01 00:00:27.202777777,27.20277777777778,-1.1148426377655694,-1.344115413974955
