timestamp,elapsed_s,MLII,V1
2000-01-01 00:00:00.000000000,0.0,0.9328784464985036,1.7026395985168803
2000-01-01 00:00:00.019444444,0.0194444444444444,0.9328784464985036,1.7026395985168803
2000-01-01 00:00:00.038888888,0.0388888888888888,0.9790317591103648,1.529177844956218
2000-01-01 00:00:00.058333333,0.0583333333333333,0.8982634620396078,1.5134085946325213
2000-01-01 00:00:00.077777777,0.0777777777777777,0.8982634620396078,1.5134085946325213
2000-01-01 00:00:00.097222222,0.0972222222222222,0.8405718212747815,1.6553318475457903
2000-01-01 00:00:00.116666666,0.1166666666666666,0.4944219766858234,1.6237933468983974
2000-01-01 00:00:00.136111111,0.1361111111111111,0.2751937417794833,1.7499473494879705
2000-01-01 00:00:00.155555555,0.1555555555555555,0.1251954757909347,1.529177844956218
2000-01-01 00:00:00.175000000,0.175,0.1482721320968653,1.450331593337735
2000-01-01 00:00:00.194444444,0.1944444444444444,0.0905804913320389,1.4345623430140382
2000-01-01 00:00:00.213888888,0.2138888888888889,0.0905804913320389,1.4661008436614316
2000-01-01 00:00:00.233333333,0.2333333333333333,0.1251954757909347,1.3872545920429484
2000-01-01 00:00:00.252777777,0.2527777777777777,0.0790421631790737,1.5134085946325213
2000-01-01 00:00:00.272222222,0.2722222222222222,0.7828801805099551,1.2453313391296792
2000-01-01 00:00:00.291666666,0.2916666666666667,1.763638073512003,-1.1200562094248103
2000-01-01 00:00:00.311111111,0.3111111111111111,1.7290230890531073,-1.1989024610432937
2000-01-01 00:00:00.330555555,0.3305555555555555,0.9328784464985036,-0.1581319396793181
2000-01-01 00:00:00.350000000,0.35,-0.7286408075284951,0.425330322297456
2000-01-01 00:00:00.369444444,0.3694444444444444,-0.9940223550466964,0.8195615803898709
2000-01-01 00:00:00.388888888,0.3888888888888889,-0.7978707764462868,1.166485087511196
2000-01-01 00:00:00.408333333,0.4083333333333333,-0.590180869692912,1.3084083404244655
2000-01-01 00:00:00.427777777,0.4277777777777778,-0.5671042133869814,1.3872545920429484
2000-01-01 00:00:00.447222222,0.4472222222222222,-0.6247958541518077,1.4187930926903416
2000-01-01 00:00:00.466666666,0.4666666666666667,-0.6709491667636688,1.4661008436614316
2000-01-01 00:00:00.486111111,0.4861111111111111,-0.636334182304773,1.3557160913955553
2000-01-01 00:00:00.505555555,0.5055555555555555,-0.6017191978458772,1.324177590748162
2000-01-01 00:00:00.525000000,0.525,-0.4747975881632592,1.2137928384822858
2000-01-01 00:00:00.544444444,0.5444444444444445,-0.3594143066336065,1.166485087511196
2000-01-01 00:00:00.563888888,0.5638888888888889,-0.1748010561861622,1.1191773365401063
2000-01-01 00:00:00.583333333,0.5833333333333334,0.0444271787201778,0.898407832008354
2000-01-01 00:00:00.602777777,0.6027777777777777,0.0905804913320389,0.7091768281239947
2000-01-01 00:00:00.622222222,0.6222222222222222,0.1251954757909347,0.5514843248870288
2000-01-01 00:00:00.641666666,0.6416666666666667,0.1251954757909347,0.4568688229448492
2000-01-01 00:00:00.661111111,0.6611111111111111,0.1021188194850042,0.4095610719737594
2000-01-01 00:00:00.680555555,0.6805555555555556,0.0905804913320389,0.2991763197078832
2000-01-01 00:00:00.700000000,0.7,0.1598104602498306,0.2360993184130968
2000-01-01 00:00:00.719444444,0.7194444444444444,0.1021188194850042,0.2360993184130968
2000-01-01 00:00:00.738888888,0.7388888888888889,0.0444271787201778,0.2360993184130968
2000-01-01 00:00:00.758333333,0.7583333333333333,-0.336337650327676,0.2045608177657036
2000-01-01 00:00:00.777777777,0.7777777777777778,-0.4863359163162245,0.188791567442007
2000-01-01 00:00:00.797222222,0.7972222222222223,-0.5671042133869814,0.188791567442007
2000-01-01 00:00:00.816666666,0.8166666666666667,-0.5209509007751203,0.0941760654998274
2000-01-01 00:00:00.836111111,0.8361111111111111,-0.5209509007751203,0.0784068151761308
2000-01-01 00:00:00.855555555,0.8555555555555556,-0.6017191978458772,-0.0477471874134419
2000-01-01 00:00:00.875000000,0.875,-0.5555658852340162,-0.1108241887082283
2000-01-01 00:00:00.894444444,0.8944444444444445,-0.6132575259988424,0.0153298138813444
2000-01-01 00:00:00.913888888,0.9138888888888888,0.0559655068731431,-0.0792856880608351
2000-01-01 00:00:00.933333333,0.9333333333333332,1.117491696945948,-2.2239037320835724
2000-01-01 00:00:00.952777777,0.9527777777777778,1.371334916311184,-2.9650584972973126
2000-01-01 00:00:00.972222222,0.9722222222222222,0.5751902737565803,-1.8139032236674608
2000-01-01 00:00:00.991666666,0.9916666666666668,-1.2017122618000713,-1.0727484584537208
2000-01-01 00:00:01.011111111,1.011111111111111,-1.6055537471538557,-0.5681324480954296
2000-01-01 00:00:01.030555555,1.0305555555555557,-1.3401721996356544,-0.1265934390319249
2000-01-01 00:00:01.050000000,1.05,-1.0401756676585574,0.0153298138813444
2000-01-01 00:00:01.069444444,1.0694444444444444,-1.0747906521174533,0.0153298138813444
2000-01-01 00:00:01.088888888,1.088888888888889,-1.1440206210352448,0.0153298138813444
2000-01-01 00:00:01.108333333,1.1083333333333334,-1.2017122618000713,0.109945315823524
2000-01-01 00:00:01.127777777,1.1277777777777778,-1.1786356054941407,0.109945315823524
2000-01-01 00:00:01.147222222,1.147222222222222,-1.0747906521174533,0.188791567442007
2000-01-01 00:00:01.166666666,1.1666666666666667,-0.9132540579759396,0.109945315823524
2000-01-01 00:00:01.186111111,1.1861111111111111,-0.7055641512225647,0.031099064205041
2000-01-01 00:00:01.205555555,1.2055555555555555,-0.5324892289280856,-0.1581319396793181
2000-01-01 00:00:01.225000000,1.225,-0.3709526347865718,-0.3158244429162841
2000-01-01 00:00:01.244444444,1.2444444444444445,-0.2901843377158149,-0.4892861964769466
2000-01-01 00:00:01.263888888,1.2638888888888888,-0.2555693532569191,-0.6312094493902161
2000-01-01 00:00:01.283333333,1.2833333333333334,-0.1517243998802317,-0.7415942016560922
2000-01-01 00:00:01.302777777,1.3027777777777778,-0.3017226658687802,-0.7258249513323957
2000-01-01 00:00:01.322222222,1.3222222222222222,-0.1517243998802317,-0.8204404532745753
2000-01-01 00:00:01.341666666,1.3416666666666668,-0.3940292910925023,-0.8046712029508787
2000-01-01 00:00:01.361111111,1.3611111111111112,-0.3709526347865718,-0.7415942016560922
2000-01-01 00:00:01.380555555,1.3805555555555555,-0.7401791356814604,-0.4577476958295535
2000-01-01 00:00:01.400000000,1.4,-0.8440240890581479,-0.788901952627182
2000-01-01 00:00:01.419444444,1.4194444444444445,-0.9478690424348352,-0.8519789539219684
2000-01-01 00:00:01.438888888,1.4388888888888889,-0.9478690424348352,-0.8992867048930582
2000-01-01 00:00:01.458333333,1.4583333333333333,-0.8901774016700089,-0.946594455864148
2000-01-01 00:00:01.477777777,1.477777777777778,-0.8671007453640784,-0.6785172003613058
2000-01-01 00:00:01.497222222,1.4972222222222222,-0.7978707764462868,-0.3473629435636773
2000-01-01 00:00:01.516666666,1.5166666666666666,-0.8555624172111131,-1.104286959101114
2000-01-01 00:00:01.536111111,1.5361111111111112,-1.0055606831996615,-0.788901952627182
2000-01-01 00:00:01.555555555,1.5555555555555556,0.4136536796150665,-1.8769802249622471
2000-01-01 00:00:01.575000000,1.575,1.8213297142768297,-4.131983021250861
2000-01-01 00:00:01.594444444,1.5944444444444446,1.417488228923045,-3.6273670108925695
2000-01-01 00:00:01.613888888,1.613888888888889,0.1021188194850042,-1.9715957269044269
2000-01-01 00:00:01.633333333,1.6333333333333333,-2.124778514037293,-1.1200562094248103
2000-01-01 00:00:01.652777777,1.652777777777778,-2.124778514037293,-1.8769802249622471
2000-01-01 00:00:01.672222222,1.6722222222222225,-1.9978569043546748,-1.1200562094248103
2000-01-01 00:00:01.691666666,1.6916666666666669,-1.7670903412953691,-0.8046712029508787
2000-01-01 00:00:01.711111111,1.7111111111111112,-1.582477090847925,-0.867748204245665
2000-01-01 00:00:01.730555555,1.7305555555555556,-1.917088607283918,-0.7731327023034854
2000-01-01 00:00:01.750000000,1.75,-1.8709352946720568,-0.4577476958295535
2000-01-01 00:00:01.769444444,1.7694444444444444,-1.8017053257542652,-0.3631321938873739
2000-01-01 00:00:01.788888888,1.788888888888889,-1.7901669976013,0.0153298138813444
2000-01-01 00:00:01.808333333,1.8083333333333331,-1.6286304034597865,-1.1200562094248103
2000-01-01 00:00:01.827777777,1.8277777777777775,-1.4440171530123418,-0.8046712029508787
2000-01-01 00:00:01.847222222,1.8472222222222223,-1.317095543329724,-0.788901952627182
2000-01-01 00:00:01.866666666,1.8666666666666667,-1.063252323964488,-0.8992867048930582
2000-01-01 00:00:01.886111111,1.886111111111111,-0.7863324482933215,-0.9939022068352378
2000-01-01 00:00:01.905555555,1.9055555555555557,-0.763255791987391,-1.2146717113669905
2000-01-01 00:00:01.925000000,1.925,-0.5324892289280856,-1.1673639603959003
2000-01-01 00:00:01.944444444,1.9444444444444444,-0.7401791356814604,-1.5142874675172255
2000-01-01 00:00:01.963888888,1.963888888888889,-0.763255791987391,-1.5615952184883153
2000-01-01 00:00:01.983333333,1.9833333333333336,-0.8671007453640784,-1.419671965575046
2000-01-01 00:00:02.002777777,2.0027777777777778,-0.8786390735170436,-1.4354412158987426
2000-01-01 00:00:02.022222222,2.022222222222222,-0.93633071428187,-1.025440707482631
2000-01-01 00:00:02.041666666,2.0416666666666665,-1.3517105277886197,-1.3250564636328663
2000-01-01 00:00:02.061111111,2.0611111111111113,-1.4440171530123418,-1.5931337191357084
2000-01-01 00:00:02.080555555,2.0805555555555557,-1.328633871482689,-1.5458259681646187
2000-01-01 00:00:02.100000000,2.1,-1.317095543329724,-1.498518217193529
2000-01-01 00:00:02.119444444,2.1194444444444445,-1.490170465624203,-1.735056972048978
2000-01-01 00:00:02.138888888,2.138888888888889,-1.4440171530123418,-1.3565949642802595
2000-01-01 00:00:02.158333333,2.158333333333333,-1.455555481165307,-1.4512104662224392
2000-01-01 00:00:02.177777777,2.177777777777778,-1.4324788248593765,-1.577364468812012
2000-01-01 00:00:02.197222222,2.1972222222222224,-1.3863255122475155,-1.372364214603956
2000-01-01 00:00:02.216666666,2.216666666666667,0.1136571476379695,-2.7600582430892566
2000-01-01 00:00:02.236111111,2.236111111111111,1.0136467435692604,-5.01506103937787
2000-01-01 00:00:02.255555555,2.2555555555555555,0.3098087262383791,-4.478906528372186
2000-01-01 00:00:02.275000000,2.275,-1.0170990113526268,-3.375059005713424
2000-01-01 00:00:02.294444444,2.2944444444444443,-2.990153125509688,-2.4289039862916284
2000-01-01 00:00:02.313888888,2.313888888888889,-2.9209231565918965,-1.892749475285944
2000-01-01 00:00:02.333333333,2.3333333333333335,-2.5286199993910774,-1.498518217193529
2000-01-01 00:00:02.352777777,2.352777777777778,-2.217085139261015,-1.2777487126617766
2000-01-01 00:00:02.372222222,2.3722222222222222,-2.044010216966536,-1.2304409616906868
2000-01-01 00:00:02.391666666,2.3916666666666666,-2.044010216966536,-1.2304409616906868
2000-01-01 00:00:02.411111111,2.411111111111111,-1.9978569043546748,-1.0569792081300242
2000-01-01 00:00:02.430555555,2.430555555555556,-1.9863185762017097,-1.0096714571589345
2000-01-01 00:00:02.450000000,2.45,-1.917088607283918,-0.9781329565115412
2000-01-01 00:00:02.469444444,2.469444444444445,-1.824781982060196,-0.9781329565115412
2000-01-01 00:00:02.488888888,2.488888888888889,-1.6978603723775778,-0.9623637061878446
2000-01-01 00:00:02.508333333,2.5083333333333333,-1.5132471219301336,-1.0569792081300242
2000-01-01 00:00:02.527777777,2.5277777777777777,-1.328633871482689,-1.0727484584537208
2000-01-01 00:00:02.547222222,2.547222222222222,-1.1324822928822795,-1.1515947100722037
2000-01-01 00:00:02.566666666,2.566666666666667,-0.93633071428187,-1.340825713956563
2000-01-01 00:00:02.586111111,2.5861111111111112,-0.8555624172111131,-1.3881334649276529
2000-01-01 00:00:02.605555555,2.6055555555555556,-0.7863324482933215,-1.4669797165461358
2000-01-01 00:00:02.625000000,2.625,-0.7978707764462868,-1.656210720430495
2000-01-01 00:00:02.644444444,2.6444444444444444,-0.8094091045992521,-1.6719799707541916
2000-01-01 00:00:02.663888888,2.6638888888888888,-0.7517174638344257,-1.6877492210778882
2000-01-01 00:00:02.683333333,2.6833333333333336,-0.7863324482933215,-1.7035184714015847
2000-01-01 00:00:02.702777777,2.702777777777778,-0.970945698740766,-1.7981339733437642
2000-01-01 00:00:02.722222222,2.7222222222222223,-1.409402168553446,-1.5931337191357084
2000-01-01 00:00:02.741666666,2.7416666666666667,-1.5132471219301336,-1.372364214603956
2000-01-01 00:00:02.761111111,2.761111111111111,-1.4786321374712377,-1.530056717840922
2000-01-01 00:00:02.780555555,2.780555555555555,-1.3863255122475155,-1.5142874675172255
2000-01-01 00:00:02.800000000,2.8,-1.3517105277886197,-1.4669797165461358
2000-01-01 00:00:02.819444444,2.8194444444444446,-1.3517105277886197,-1.4354412158987426
2000-01-01 00:00:02.838888888,2.838888888888889,-1.317095543329724,-1.340825713956563
2000-01-01 00:00:02.858333333,2.8583333333333334,-1.3863255122475155,-0.9308252055404516
2000-01-01 00:00:02.877777777,2.8777777777777778,-0.2324926969509885,-2.018903477875517
2000-01-01 00:00:02.897222222,2.897222222222222,0.8405718212747815,-4.400060276753703
2000-01-01 00:00:02.916666666,2.9166666666666665,0.6328819145214066,-3.8323672651006255
2000-01-01 00:00:02.936111111,2.9361111111111113,-0.3594143066336065,-2.9335199966499195
2000-01-01 00:00:02.955555555,2.9555555555555557,-2.217085139261015,-1.608902969459405
2000-01-01 00:00:02.975000000,2.975,-2.3324684207906676,-1.0569792081300242
2000-01-01 00:00:02.994444444,2.9944444444444445,-2.0093952325076403,-0.4104399448584637
2000-01-01 00:00:03.013888888,3.013888888888889,-1.6055537471538557,0.0626375648524342
2000-01-01 00:00:03.033333333,3.033333333333333,-1.4786321374712377,0.26763781906049
2000-01-01 00:00:03.052777777,3.052777777777778,-1.5132471219301336,0.4884073235922424
2000-01-01 00:00:03.072222222,3.0722222222222224,-1.582477090847925,0.6934075778002982
2000-01-01 00:00:03.091666666,3.091666666666667,-1.5132471219301336,0.9614848333031404
2000-01-01 00:00:03.111111111,3.111111111111111,-1.455555481165307,1.3557160913955553
2000-01-01 00:00:03.130555555,3.1305555555555555,-1.3401721996356544,1.4661008436614316
2000-01-01 00:00:03.150000000,3.15,-1.15555894918821,1.6080240965747008
2000-01-01 00:00:03.169444444,3.1694444444444443,-1.0401756676585574,1.6553318475457903
2000-01-01 00:00:03.188888888,3.188888888888889,-0.8324857609051826,1.718408848840577
2000-01-01 00:00:03.208333333,3.2083333333333335,-0.6824874949166341,1.7814858501353634
2000-01-01 00:00:03.227777777,3.227777777777778,-0.509412572622155,1.79725510045906
2000-01-01 00:00:03.247222222,3.2472222222222222,-0.4055676192454676,1.8287936011064532
2000-01-01 00:00:03.266666666,3.2666666666666666,-0.336337650327676,1.9076398527249363
2000-01-01 00:00:03.286111111,3.286111111111111,-0.3594143066336065,1.954947603696026
2000-01-01 00:00:03.305555555,3.305555555555556,-0.3709526347865718,1.9234091030486329
2000-01-01 00:00:03.325000000,3.325,-0.336337650327676,2.0968708566092955
2000-01-01 00:00:03.344444444,3.344444444444445,-0.3709526347865718,2.270332610169958
2000-01-01 00:00:03.363888888,3.363888888888889,-0.509412572622155,2.380717362435834
2000-01-01 00:00:03.383333333,3.3833333333333333,-0.8901774016700089,2.6803331185860695
2000-01-01 00:00:03.402777777,3.4027777777777777,-0.9940223550466964,2.696102368909766
2000-01-01 00:00:03.422222222,3.4222222222222225,-1.0401756676585574,2.664563868262373
2000-01-01 00:00:03.441666666,3.441666666666667,-1.0517139958115227,2.7276408695571592
2000-01-01 00:00:03.461111111,3.4611111111111112,-1.0401756676585574,2.7591793702045524
2000-01-01 00:00:03.480555555,3.4805555555555556,-0.970945698740766,2.8853333727941255
2000-01-01 00:00:03.500000000,3.5,-0.9478690424348352,2.806487121175642
2000-01-01 00:00:03.519444444,3.5194444444444444,-1.1209439647293142,3.184949128944361
2000-01-01 00:00:03.538888888,3.5388888888888888,0.0559655068731431,2.475332864378014
2000-01-01 00:00:03.558333333,3.5583333333333336,1.1290300250989131,-0.0635164377371385
2000-01-01 00:00:03.577777777,3.577777777777778,1.2559516347815312,-0.1739011900030147
2000-01-01 00:00:03.597222222,3.5972222222222223,0.1944254447087263,0.977254083626837
2000-01-01 00:00:03.616666666,3.6166666666666663,-1.8017053257542652,1.8761013520775431
2000-01-01 00:00:03.636111111,3.636111111111111,-2.136316842190258,2.333409611464744
2000-01-01 00:00:03.655555555,3.655555555555555,-1.8017053257542652,2.743410119880856
2000-01-01 00:00:03.675000000,3.675,-1.5017087937771685,3.058795126354788
2000-01-01 00:00:03.694444444,3.6944444444444446,-1.3747871840945505,3.0430258760310913
2000-01-01 00:00:03.713888888,3.713888888888889,-1.3401721996356544,3.011487375383698
2000-01-01 00:00:03.733333333,3.7333333333333334,-1.328633871482689,2.979948874736305
2000-01-01 00:00:03.752777777,3.7527777777777778,-1.328633871482689,2.9168718734415187
2000-01-01 00:00:03.772222222,3.772222222222222,-1.2940188870237934,2.806487121175642
2000-01-01 00:00:03.791666666,3.7916666666666665,-1.1324822928822795,2.696102368909766
2000-01-01 00:00:03.811111111,3.8111111111111113,-0.9478690424348352,2.5384098656728
2000-01-01 00:00:03.830555555,3.830555555555556,-0.7978707764462868,2.301871110817351
2000-01-01 00:00:03.850000000,3.85,-0.5671042133869814,2.081101606285599
2000-01-01 00:00:03.869444444,3.869444444444445,-0.4517209318573287,1.79725510045906
2000-01-01 00:00:03.888888888,3.888888888888889,-0.3594143066336065,1.450331593337735
2000-01-01 00:00:03.908333333,3.908333333333333,-0.2440310251039538,1.2295620888059826
2000-01-01 00:00:03.927777777,3.927777777777778,-0.1863393843391275,1.0403310849216234
2000-01-01 00:00:03.947222222,3.9472222222222224,-0.2209543687980233,0.7564845790950846
2000-01-01 00:00:03.966666666,3.966666666666667,-0.1978777124920927,0.6303305765055118
2000-01-01 00:00:03.986111111,3.986111111111111,-0.3017226658687802,0.4884073235922424
2000-01-01 00:00:04.005555555,4.0055555555555555,-0.336337650327676,0.4568688229448492
2000-01-01 00:00:04.025000000,4.025,-0.8209474327522173,0.4726380732685458
2000-01-01 00:00:04.044444444,4.044444444444444,-0.9017157298229742,0.3937918216500628
2000-01-01 00:00:04.063888888,4.063888888888889,-0.8786390735170436,0.188791567442007
2000-01-01 00:00:04.083333333,4.083333333333333,-0.8440240890581479,0.109945315823524
2000-01-01 00:00:04.102777777,4.102777777777778,-0.8671007453640784,-0.0477471874134419
2000-01-01 00:00:04.122222222,4.122222222222223,-0.8555624172111131,-0.1423626893556215
2000-01-01 00:00:04.141666666,4.141666666666667,-0.7978707764462868,-0.2527474416214977
2000-01-01 00:00:04.161111111,4.161111111111111,-0.7747941201403562,-0.1581319396793181
2000-01-01 00:00:04.180555555,4.180555555555555,-0.4055676192454676,-0.3000551925925875
2000-01-01 00:00:04.200000000,4.2,0.8751868057336772,-1.9873649772281232
2000-01-01 00:00:04.219444444,4.219444444444444,1.6367164638293852,-4.2108292728693435
2000-01-01 00:00:04.238888888,4.238888888888889,1.117491696945948,-3.5485207592740866
2000-01-01 00:00:04.258333333,4.258333333333334,-0.590180869692912,-2.3342884843494485
2000-01-01 00:00:04.277777777,4.277777777777778,-1.963241919895779,-1.577364468812012
2000-01-01 00:00:04.297222222,4.2972222222222225,-1.8593969665190917,-1.1200562094248103
2000-01-01 00:00:04.316666666,4.316666666666666,-1.3978638404004808,-0.6785172003613058
2000-01-01 00:00:04.336111111,4.336111111111111,-1.063252323964488,-0.4892861964769466
2000-01-01 00:00:04.355555555,4.355555555555556,-1.0517139958115227,-0.5208246971243399
2000-01-01 00:00:04.375000000,4.375,-1.0747906521174533,-0.5208246971243399
2000-01-01 00:00:04.394444444,4.394444444444445,-1.1094056365763492,-0.4577476958295535
2000-01-01 00:00:04.413888888,4.413888888888889,-1.0055606831996615,-0.4735169461532501
2000-01-01 00:00:04.433333333,4.433333333333334,-1.0055606831996615,-0.4577476958295535
2000-01-01 00:00:04.452777777,4.4527777777777775,-0.9017157298229742,-0.5681324480954296
2000-01-01 00:00:04.472222222,4.472222222222222,-0.8094091045992521,-0.6627479500376092
2000-01-01 00:00:04.491666666,4.491666666666667,-0.5671042133869814,-0.7415942016560922
2000-01-01 00:00:04.511111111,4.511111111111111,-0.3594143066336065,-0.8046712029508787
2000-01-01 00:00:04.530555555,4.530555555555556,-0.2324926969509885,-1.0885177087774174
2000-01-01 00:00:04.550000000,4.55,-0.0709561028094748,-1.1989024610432937
2000-01-01 00:00:04.569444444,4.569444444444445,0.0213505224142473,-1.4512104662224392
2000-01-01 00:00:04.588888888,4.588888888888889,0.0444271787201778,-1.4354412158987426
2000-01-01 00:00:04.608333333,4.608333333333333,-0.0017261338916831,-1.6719799707541916
2000-01-01 00:00:04.627777777,4.627777777777778,0.0213505224142473,-1.6719799707541916
2000-01-01 00:00:04.647222222,4.647222222222222,0.0559655068731431,-1.608902969459405
2000-01-01 00:00:04.666666666,4.666666666666667,-0.0709561028094748,-1.7508262223726745
2000-01-01 00:00:04.686111111,4.686111111111111,-0.2786460095628496,-1.719287721725281
2000-01-01 00:00:04.705555555,4.705555555555556,-0.6132575259988424,-1.7035184714015847
2000-01-01 00:00:04.725000000,4.725,-0.6132575259988424,-1.766595472696371
2000-01-01 00:00:04.744444444,4.7444444444444445,-0.6017191978458772,-1.7508262223726745
2000-01-01 00:00:04.763888888,4.763888888888889,-0.636334182304773,-1.8139032236674608
2000-01-01 00:00:04.783333333,4.783333333333333,-0.6247958541518077,-1.8769802249622471
2000-01-01 00:00:04.802777777,4.802777777777778,-0.5786425415399467,-1.9715957269044269
2000-01-01 00:00:04.822222222,4.822222222222222,-0.6017191978458772,-1.9400572262570337
2000-01-01 00:00:04.841666666,4.841666666666667,-0.6132575259988424,-1.7508262223726745
2000-01-01 00:00:04.861111111,4.861111111111112,0.2867320699324485,-1.8454417243148544
2000-01-01 00:00:04.880555555,4.8805555555555555,1.4059499007700798,-3.3592897553897276
2000-01-01 00:00:04.900000000,4.9,2.190556215171718,-5.566984800707251
2000-01-01 00:00:04.919444444,4.919444444444444,1.0828767124870522,-4.715445283227635
2000-01-01 00:00:04.938888888,4.938888888888889,-0.7171024793755298,-3.6589055115399622
2000-01-01 00:00:04.958333333,4.958333333333333,-2.1593934984961884,-2.665442741147077
2000-01-01 00:00:04.977777777,4.977777777777778,-1.9863185762017097,-2.2239037320835724
2000-01-01 00:00:04.997222222,4.997222222222223,-1.490170465624203,-1.7823647230200677
2000-01-01 00:00:05.016666666,5.016666666666667,-1.1209439647293142,-1.4669797165461358
2000-01-01 00:00:05.036111111,5.036111111111111,-1.063252323964488,-1.5142874675172255
2000-01-01 00:00:05.055555555,5.055555555555555,-1.0517139958115227,-1.5142874675172255
2000-01-01 00:00:05.075000000,5.075,-1.063252323964488,-1.4827489668698324
2000-01-01 00:00:05.094444444,5.094444444444444,-1.0401756676585574,-1.3565949642802595
2000-01-01 00:00:05.113888888,5.113888888888889,-0.9940223550466964,-1.3092872133091698
2000-01-01 00:00:05.133333333,5.133333333333334,-0.8555624172111131,-1.3250564636328663
2000-01-01 00:00:05.152777777,5.152777777777778,-0.6940258230695994,-1.4669797165461358
2000-01-01 00:00:05.172222222,5.1722222222222225,-0.463259260010294,-1.530056717840922
2000-01-01 00:00:05.191666666,5.191666666666666,-0.2440310251039538,-1.5615952184883153
2000-01-01 00:00:05.211111111,5.211111111111111,-0.0594177746565095,-1.6719799707541916
2000-01-01 00:00:05.230555555,5.230555555555556,0.0675038350261084,-1.8139032236674608
2000-01-01 00:00:05.250000000,5.25,0.1828871165557611,-1.9085187256096403
2000-01-01 00:00:05.269444444,5.269444444444445,0.1021188194850042,-2.1135189798176963
2000-01-01 00:00:05.288888888,5.288888888888889,0.0559655068731431,-2.018903477875517
2000-01-01 00:00:05.308333333,5.308333333333334,0.0328888505672126,-2.1923652314361792
2000-01-01 00:00:05.327777777,5.3277777777777775,-0.0248027901976137,-2.00313422755182
2000-01-01 00:00:05.347222222,5.347222222222222,-0.3247993221747107,-1.8454417243148544
2000-01-01 00:00:05.366666666,5.366666666666667,-0.5209509007751203,-1.892749475285944
2000-01-01 00:00:05.386111111,5.386111111111111,-0.5786425415399467,-1.9873649772281232
2000-01-01 00:00:05.405555555,5.405555555555556,-0.6132575259988424,-1.9242879759333371
2000-01-01 00:00:05.425000000,5.425,-0.7171024793755298,-1.8139032236674608
2000-01-01 00:00:05.444444444,5.444444444444445,-0.5786425415399467,-1.9242879759333371
2000-01-01 00:00:05.463888888,5.463888888888889,-0.5209509007751203,-1.8454417243148544
2000-01-01 00:00:05.483333333,5.483333333333333,-0.3709526347865718,-1.7508262223726745
2000-01-01 00:00:05.502777777,5.502777777777778,0.0444271787201778,-1.6877492210778882
2000-01-01 00:00:05.522222222,5.522222222222222,1.198259994016705,-3.5485207592740866
2000-01-01 00:00:05.541666666,5.541666666666667,1.371334916311184,-5.10967654132005
2000-01-01 00:00:05.561111111,5.561111111111111,0.6328819145214066,-3.958521267690198
2000-01-01 00:00:05.580555555,5.580555555555556,-0.9594073705878006,-3.059673999239492
2000-01-01 00:00:05.600000000,5.6,-1.6517070597657166,-2.3658269849968416
2000-01-01 00:00:05.619444444,5.6194444444444445,-1.3517105277886197,-1.892749475285944
2000-01-01 00:00:05.638888888,5.638888888888889,-1.1209439647293142,-1.419671965575046
2000-01-01 00:00:05.658333333,5.658333333333333,-1.0055606831996615,-1.26197946233808
2000-01-01 00:00:05.677777777,5.677777777777778,-0.8786390735170436,-1.2304409616906868
2000-01-01 00:00:05.697222222,5.697222222222222,-0.9594073705878006,-1.1831332107195969
2000-01-01 00:00:05.716666666,5.716666666666667,-0.8440240890581479,-1.1673639603959003
2000-01-01 00:00:05.736111111,5.736111111111112,-0.7978707764462868,-1.1515947100722037
2000-01-01 00:00:05.755555555,5.7555555555555555,-0.7401791356814604,-1.1515947100722037
2000-01-01 00:00:05.775000000,5.775,-0.6017191978458772,-1.1831332107195969
2000-01-01 00:00:05.794444444,5.794444444444444,-0.3594143066336065,-1.2304409616906868
2000-01-01 00:00:05.813888888,5.813888888888889,-0.1863393843391275,-1.372364214603956
2000-01-01 00:00:05.833333333,5.833333333333333,-0.0248027901976137,-1.4354412158987426
2000-01-01 00:00:05.852777777,5.852777777777778,0.0790421631790737,-1.6404414701067984
2000-01-01 00:00:05.872222222,5.872222222222223,0.1251954757909347,-1.7981339733437642
2000-01-01 00:00:05.891666666,5.891666666666667,0.1828871165557611,-1.8296724739911576
2000-01-01 00:00:05.911111111,5.911111111111111,0.1944254447087263,-1.9558264765807305
2000-01-01 00:00:05.930555555,5.930555555555555,0.1944254447087263,-2.00313422755182
2000-01-01 00:00:05.950000000,5.95,0.1136571476379695,-2.018903477875517
2000-01-01 00:00:05.969444444,5.969444444444444,-0.0940327591154053,-1.9558264765807305
2000-01-01 00:00:05.988888888,5.988888888888889,-0.4171059473984329,-1.892749475285944
2000-01-01 00:00:06.008333333,6.008333333333334,-0.5209509007751203,-1.8612109746385508
2000-01-01 00:00:06.027777777,6.027777777777778,-0.4978742444691897,-1.9085187256096403
2000-01-01 00:00:06.047222222,6.0472222222222225,-0.4401826037043634,-1.9400572262570337
2000-01-01 00:00:06.066666666,6.066666666666666,-0.4171059473984329,-1.9715957269044269
2000-01-01 00:00:06.086111111,6.086111111111111,-0.4863359163162245,-1.9558264765807305
2000-01-01 00:00:06.105555555,6.105555555555556,-0.4055676192454676,-1.9400572262570337
2000-01-01 00:00:06.125000000,6.125,-0.2209543687980233,-1.766595472696371
2000-01-01 00:00:06.144444444,6.144444444444445,0.9559551028044342,-3.8639057657480183
2000-01-01 00:00:06.163888888,6.163888888888889,1.5213331822997325,-5.314676795528106
2000-01-01 00:00:06.183333333,6.183333333333334,0.6328819145214066,-3.9742905180138943
2000-01-01 00:00:06.202777777,6.2027777777777775,-1.2594039025648975,-3.059673999239492
2000-01-01 00:00:06.222222222,6.222222222222222,-1.5594004345419945,-2.4289039862916284
2000-01-01 00:00:06.241666666,6.241666666666667,-1.2132505899530366,-1.8769802249622471
2000-01-01 00:00:06.261111111,6.261111111111111,-0.8324857609051826,-1.530056717840922
2000-01-01 00:00:06.280555555,6.280555555555556,-0.7517174638344257,-1.5142874675172255
2000-01-01 00:00:06.300000000,6.3,-0.7863324482933215,-1.4669797165461358
2000-01-01 00:00:06.319444444,6.319444444444445,-0.7978707764462868,-1.372364214603956
2000-01-01 00:00:06.338888888,6.338888888888889,-0.8094091045992521,-1.2777487126617766
2000-01-01 00:00:06.358333333,6.358333333333333,-0.6709491667636688,-1.2777487126617766
2000-01-01 00:00:06.377777777,6.377777777777778,-0.5440275570810509,-1.2935179629854732
2000-01-01 00:00:06.397222222,6.397222222222222,-0.3824909629395371,-1.372364214603956
2000-01-01 00:00:06.416666666,6.416666666666667,-0.1055710872683706,-1.4669797165461358
2000-01-01 00:00:06.436111111,6.436111111111111,-0.0017261338916831,-1.7035184714015847
2000-01-01 00:00:06.455555555,6.455555555555556,0.1713487884027958,-1.8296724739911576
2000-01-01 00:00:06.475000000,6.4750000000000005,0.2982703980854138,-1.8454417243148544
2000-01-01 00:00:06.494444444,6.4944444444444445,0.2751937417794833,-2.018903477875517
2000-01-01 00:00:06.513888888,6.513888888888889,0.3559620388502401,-2.0346727281992134
2000-01-01 00:00:06.533333333,6.533333333333333,0.2982703980854138,-2.0346727281992134
2000-01-01 00:00:06.552777777,6.552777777777778,0.2059637728616916,-2.05044197852291
2000-01-01 00:00:06.572222222,6.572222222222222,-0.1632627280331969,-1.9558264765807305
2000-01-01 00:00:06.591666666,6.591666666666667,-0.3940292910925023,-1.892749475285944
2000-01-01 00:00:06.611111111,6.611111111111112,-0.4055676192454676,-1.8769802249622471
2000-01-01 00:00:06.630555555,6.6305555555555555,-0.3709526347865718,-1.9400572262570337
2000-01-01 00:00:06.650000000,6.65,-0.3709526347865718,-1.8769802249622471
2000-01-01 00:00:06.669444444,6.669444444444444,-0.4171059473984329,-2.00313422755182
2000-01-01 00:00:06.688888888,6.688888888888889,-0.4055676192454676,-2.00313422755182
2000-01-01 00:00:06.708333333,6.708333333333333,-0.4055676192454676,-1.7823647230200677
2000-01-01 00:00:06.727777777,6.727777777777778,0.2175021010146569,-1.9085187256096403
2000-01-01 00:00:06.747222222,6.747222222222223,1.4405648852289754,-4.4315987774010965
2000-01-01 00:00:06.766666666,6.766666666666667,1.8674830268886904,-5.220061293585926
2000-01-01 00:00:06.786111111,6.786111111111111,0.6674968989803024,-3.8796750160717153
2000-01-01 00:00:06.805555555,6.805555555555555,-1.3978638404004808,-2.9019814960025263
2000-01-01 00:00:06.825000000,6.825,-1.5017087937771685,-2.2239037320835724
2000-01-01 00:00:06.844444444,6.844444444444445,-1.097867308423384,-1.5931337191357084
2000-01-01 00:00:06.863888888,6.863888888888889,-0.7517174638344257,-1.340825713956563
2000-01-01 00:00:06.883333333,6.883333333333334,-0.7286408075284951,-1.2935179629854732
2000-01-01 00:00:06.902777777,6.902777777777778,-0.7171024793755298,-1.2462102120143834
2000-01-01 00:00:06.922222222,6.9222222222222225,-0.7517174638344257,-1.1673639603959003
2000-01-01 00:00:06.941666666,6.941666666666666,-0.6824874949166341,-1.0096714571589345
2000-01-01 00:00:06.961111111,6.961111111111111,-0.5440275570810509,-1.025440707482631
2000-01-01 00:00:06.980555555,6.980555555555556,-0.4401826037043634,-0.9781329565115412
2000-01-01 00:00:07.000000000,7.0,-0.2209543687980233,-0.9939022068352378
2000-01-01 00:00:07.019444444,7.019444444444445,-0.0017261338916831,-1.0412099578063276
2000-01-01 00:00:07.038888888,7.038888888888889,0.0675038350261084,-1.1200562094248103
2000-01-01 00:00:07.058333333,7.058333333333334,0.2290404291676222,-1.419671965575046
2000-01-01 00:00:07.077777777,7.0777777777777775,0.5059603048387886,-1.4827489668698324
2000-01-01 00:00:07.097222222,7.097222222222222,0.6790352271332677,-1.7508262223726745
2000-01-01 00:00:07.116666666,7.116666666666667,0.263655413626518,-1.6246722197831016
2000-01-01 00:00:07.136111111,7.136111111111111,0.3444237106972749,-1.6877492210778882
2000-01-01 00:00:07.155555555,7.155555555555556,0.2867320699324485,-1.6719799707541916
2000-01-01 00:00:07.175000000,7.175,0.1713487884027958,-1.656210720430495
2000-01-01 00:00:07.194444444,7.194444444444445,-0.0709561028094748,-1.766595472696371
2000-01-01 00:00:07.213888888,7.213888888888889,0.0559655068731431,-1.6719799707541916
2000-01-01 00:00:07.233333333,7.233333333333333,-0.5209509007751203,-1.3092872133091698
2000-01-01 00:00:07.252777777,7.252777777777778,-0.3824909629395371,-0.8204404532745753
2000-01-01 00:00:07.272222222,7.272222222222222,-0.4171059473984329,-1.608902969459405
2000-01-01 00:00:07.291666666,7.291666666666667,-0.2671076814098844,-2.0977497294939997
2000-01-01 00:00:07.311111111,7.311111111111111,-0.1632627280331969,-1.719287721725281
2000-01-01 00:00:07.330555555,7.330555555555556,-0.2901843377158149,-1.3092872133091698
2000-01-01 00:00:07.350000000,7.35,0.5405752892976845,-1.7981339733437642
2000-01-01 00:00:07.369444444,7.3694444444444445,1.590563151217524,-3.3592897553897276
2000-01-01 00:00:07.388888888,7.388888888888889,1.855944698735725,-4.037367519308681
2000-01-01 00:00:07.408333333,7.408333333333333,1.1405683532518784,-3.926982767042805
2000-01-01 00:00:07.427777777,7.427777777777778,-1.063252323964488,-2.9335199966499195
2000-01-01 00:00:07.447222222,7.447222222222222,-1.6517070597657166,-1.9873649772281232
2000-01-01 00:00:07.466666666,7.466666666666667,-1.1786356054941407,-1.4039027152513492
2000-01-01 00:00:07.486111111,7.486111111111112,-0.8209474327522173,-0.788901952627182
2000-01-01 00:00:07.505555555,7.5055555555555555,-0.5209509007751203,-0.7258249513323957
2000-01-01 00:00:07.525000000,7.525,-0.590180869692912,-0.5839016984191262
2000-01-01 00:00:07.544444444,7.544444444444444,-0.9247923861289048,-0.6469786997139126
2000-01-01 00:00:07.563888888,7.563888888888889,-0.8440240890581479,-0.7100557010086991
2000-01-01 00:00:07.583333333,7.583333333333333,-0.6824874949166341,-0.5208246971243399
2000-01-01 00:00:07.602777777,7.602777777777778,-0.4863359163162245,-0.8204404532745753
2000-01-01 00:00:07.622222222,7.622222222222223,-0.2324926969509885,-0.9781329565115412
2000-01-01 00:00:07.641666666,7.641666666666667,0.0675038350261084,-0.9308252055404516
2000-01-01 00:00:07.661111111,7.661111111111111,0.1021188194850042,-0.8992867048930582
2000-01-01 00:00:07.680555555,7.680555555555555,0.1482721320968653,-0.9623637061878446
2000-01-01 00:00:07.700000000,7.7,0.6444202426743719,-1.025440707482631
2000-01-01 00:00:07.719444444,7.719444444444445,0.3905770233091359,-1.1358254597485071
2000-01-01 00:00:07.738888888,7.738888888888889,0.8636484775807121,-1.372364214603956
2000-01-01 00:00:07.758333333,7.758333333333334,0.2521170854735527,-1.1358254597485071
2000-01-01 00:00:07.777777777,7.777777777777778,0.4021153514621012,-1.1515947100722037
2000-01-01 00:00:07.797222222,7.7972222222222225,-0.1517243998802317,-1.0096714571589345
2000-01-01 00:00:07.816666666,7.816666666666666,-0.1632627280331969,-1.0412099578063276
2000-01-01 00:00:07.836111111,7.836111111111111,-0.1286477435743011,-1.104286959101114
2000-01-01 00:00:07.855555555,7.855555555555556,-0.4863359163162245,-1.0096714571589345
2000-01-01 00:00:07.875000000,7.875,-0.2786460095628496,-1.0727484584537208
2000-01-01 00:00:07.894444444,7.894444444444445,-0.2440310251039538,-0.8992867048930582
2000-01-01 00:00:07.913888888,7.913888888888889,-0.1286477435743011,-0.946594455864148
2000-01-01 00:00:07.933333333,7.933333333333334,-0.0940327591154053,-0.9308252055404516
2000-01-01 00:00:07.952777777,7.9527777777777775,-0.2440310251039538,-0.5839016984191262
2000-01-01 00:00:07.972222222,7.972222222222222,1.0021084154162954,-1.6719799707541916
2000-01-01 00:00:07.991666666,7.991666666666667,1.9944046365713084,-4.0215982689849845
2000-01-01 00:00:08.011111111,8.011111111111111,2.2020945433246832,-4.116213770927164
2000-01-01 00:00:08.030555555,8.030555555555555,0.99057008726333,-2.8073659940603464
2000-01-01 00:00:08.050000000,8.05,-0.8901774016700089,-1.9558264765807305
2000-01-01 00:00:08.069444444,8.069444444444445,-1.3055572151767587,-1.4354412158987426
2000-01-01 00:00:08.088888888,8.088888888888889,-1.0747906521174533,-0.8992867048930582
2000-01-01 00:00:08.108333333,8.108333333333334,-0.763255791987391,-0.4735169461532501
2000-01-01 00:00:08.127777777,8.127777777777778,-0.4747975881632592,-0.2527474416214977
2000-01-01 00:00:08.147222222,8.147222222222222,-0.4747975881632592,-0.2685166919451943
2000-01-01 00:00:08.166666666,8.166666666666666,-0.4863359163162245,-0.1739011900030147
2000-01-01 00:00:08.186111111,8.186111111111112,-0.4863359163162245,-0.0792856880608351
2000-01-01 00:00:08.205555555,8.205555555555556,-0.4863359163162245,-0.0162086867660487
2000-01-01 00:00:08.225000000,8.225,-0.4055676192454676,0.0626375648524342
2000-01-01 00:00:08.244444444,8.244444444444445,-0.209416040645058,0.0153298138813444
2000-01-01 00:00:08.263888888,8.26388888888889,0.009812194261282,-0.0162086867660487
2000-01-01 00:00:08.283333333,8.283333333333333,0.2059637728616916,-0.0792856880608351
2000-01-01 00:00:08.302777777,8.302777777777777,0.3559620388502401,-0.1739011900030147
2000-01-01 00:00:08.322222222,8.322222222222223,0.4944219766858234,-0.3631321938873739
2000-01-01 00:00:08.341666666,8.341666666666667,0.6559585708273372,-0.4104399448584637
2000-01-01 00:00:08.361111111,8.36111111111111,0.7944185086629204,-0.4735169461532501
2000-01-01 00:00:08.380555555,8.380555555555556,0.7482651960510593,-0.5996709487428229
2000-01-01 00:00:08.400000000,8.4,0.736726867898094,-0.6785172003613058
2000-01-01 00:00:08.419444444,8.419444444444444,0.6674968989803024,-0.6469786997139126
2000-01-01 00:00:08.438888888,8.438888888888888,0.4944219766858234,-0.5839016984191262
2000-01-01 00:00:08.458333333,8.458333333333334,0.0790421631790737,-0.5365939474480365
2000-01-01 00:00:08.477777777,8.477777777777778,-0.0132644620446484,-0.4735169461532501
2000-01-01 00:00:08.497222222,8.497222222222222,-0.0017261338916831,-0.5050554468006433
2000-01-01 00:00:08.516666666,8.516666666666667,-0.0248027901976137,-0.552363197771733
2000-01-01 00:00:08.536111111,8.536111111111111,-0.0132644620446484,-0.5996709487428229
2000-01-01 00:00:08.555555555,8.555555555555555,-0.0248027901976137,-0.5996709487428229
2000-01-01 00:00:08.574999999,8.575,0.009812194261282,-0.5208246971243399
2000-01-01 00:00:08.594444444,8.594444444444445,-0.0709561028094748,-0.3158244429162841
2000-01-01 00:00:08.613888888,8.613888888888889,0.6444202426743719,-0.4892861964769466
2000-01-01 00:00:08.633333333,8.633333333333333,1.9020980113475865,-2.6812119914707737
2000-01-01 00:00:08.652777777,8.652777777777779,2.7213193102081203,-4.305444774811523
2000-01-01 00:00:08.672222222,8.672222222222222,1.6713314482882808,-3.2331357528001545
2000-01-01 00:00:08.691666666,8.691666666666666,-0.336337650327676,-1.9085187256096403
2000-01-01 00:00:08.711111111,8.711111111111112,-1.3863255122475155,-1.2146717113669905
2000-01-01 00:00:08.730555555,8.730555555555556,-1.2594039025648975,-0.6627479500376092
2000-01-01 00:00:08.750000000,8.75,-0.8786390735170436,-0.1265934390319249
2000-01-01 00:00:08.769444444,8.769444444444444,-0.5786425415399467,0.0941760654998274
2000-01-01 00:00:08.788888888,8.78888888888889,-0.5324892289280856,0.188791567442007
2000-01-01 00:00:08.808333333,8.808333333333334,-0.5671042133869814,0.2991763197078832
2000-01-01 00:00:08.827777777,8.827777777777778,-0.590180869692912,0.3937918216500628
2000-01-01 00:00:08.847222222,8.847222222222223,-0.6017191978458772,0.5199458242396356
2000-01-01 00:00:08.866666666,8.866666666666667,-0.5671042133869814,0.504176573915939
2000-01-01 00:00:08.886111111,8.886111111111111,-0.4747975881632592,0.5514843248870288
2000-01-01 00:00:08.905555555,8.905555555555555,-0.3594143066336065,0.4884073235922424
2000-01-01 00:00:08.925000000,8.925,-0.1748010561861622,0.4410995726211526
2000-01-01 00:00:08.944444444,8.944444444444445,0.0328888505672126,0.4726380732685458
2000-01-01 00:00:08.963888888,8.963888888888889,0.2521170854735527,0.346484070678973
2000-01-01 00:00:08.983333333,8.983333333333334,0.4136536796150665,0.2045608177657036
2000-01-01 00:00:09.002777777,9.002777777777778,0.5751902737565803,0.0468683145287376
2000-01-01 00:00:09.022222222,9.022222222222222,0.563651945603615,-0.0004394364423521
2000-01-01 00:00:09.041666666,9.041666666666666,0.4713453203798928,-0.1265934390319249
2000-01-01 00:00:09.061111111,9.061111111111112,0.5174986329917539,0.0468683145287376
2000-01-01 00:00:09.080555555,9.080555555555556,0.4598069922269276,0.031099064205041
2000-01-01 00:00:09.100000000,9.1,0.3905770233091359,-0.1108241887082283
2000-01-01 00:00:09.119444444,9.119444444444444,-0.08249443096244,-0.3000551925925875
2000-01-01 00:00:09.138888888,9.13888888888889,-0.3594143066336065,-0.0477471874134419
2000-01-01 00:00:09.158333333,9.158333333333331,-0.3132609940217454,-0.0635164377371385
2000-01-01 00:00:09.177777777,9.177777777777775,-0.2671076814098844,-0.0477471874134419
2000-01-01 00:00:09.197222222,9.197222222222225,-0.2440310251039538,-0.0792856880608351
2000-01-01 00:00:09.216666666,9.216666666666669,-0.2209543687980233,-0.0635164377371385
2000-01-01 00:00:09.236111111,9.23611111111111,-0.1978777124920927,-0.0635164377371385
2000-01-01 00:00:09.255555555,9.255555555555556,-0.2901843377158149,0.1414838164709172
2000-01-01 00:00:09.275000000,9.275,0.99057008726333,-0.3315936932399806
2000-01-01 00:00:09.294444444,9.294444444444444,2.0405579491831696,-2.1450574804650895
2000-01-01 00:00:09.313888888,9.313888888888888,2.144402902559857,-3.106981750210582
2000-01-01 00:00:09.333333333,9.333333333333334,0.7828801805099551,-2.018903477875517
2000-01-01 00:00:09.352777777,9.352777777777778,-1.2478655744119322,-1.1673639603959003
2000-01-01 00:00:09.372222222,9.372222222222222,-1.7209370286835084,-0.552363197771733
2000-01-01 00:00:09.391666666,9.391666666666667,-1.363248855941585,-0.0162086867660487
2000-01-01 00:00:09.411111111,9.411111111111111,-0.9478690424348352,0.346484070678973
2000-01-01 00:00:09.430555555,9.430555555555555,-0.6940258230695994,0.4568688229448492
2000-01-01 00:00:09.450000000,9.45,-0.7286408075284951,0.4726380732685458
2000-01-01 00:00:09.469444444,9.469444444444443,-0.7747941201403562,0.4884073235922424
2000-01-01 00:00:09.488888888,9.488888888888887,-0.763255791987391,0.5514843248870288
2000-01-01 00:00:09.508333333,9.508333333333333,-0.7055641512225647,0.6145613261818151
2000-01-01 00:00:09.527777777,9.52777777777778,-0.5324892289280856,0.6303305765055118
2000-01-01 00:00:09.547222222,9.547222222222222,-0.3824909629395371,0.6145613261818151
2000-01-01 00:00:09.566666666,9.566666666666666,-0.209416040645058,0.5357150745633322
2000-01-01 00:00:09.586111111,9.586111111111112,-0.0017261338916831,0.4884073235922424
2000-01-01 00:00:09.605555555,9.605555555555556,0.1251954757909347,0.3149455700315798
2000-01-01 00:00:09.625000000,9.625,0.2521170854735527,0.26763781906049
2000-01-01 00:00:09.644444444,9.644444444444444,0.4136536796150665,0.346484070678973
2000-01-01 00:00:09.663888888,9.66388888888889,0.4944219766858234,0.0784068151761308
2000-01-01 00:00:09.683333333,9.683333333333334,0.436730335920997,-0.0635164377371385
2000-01-01 00:00:09.702777777,9.702777777777778,0.3559620388502401,-0.0792856880608351
2000-01-01 00:00:09.722222222,9.722222222222223,0.3098087262383791,-0.0950549383845317
2000-01-01 00:00:09.741666666,9.741666666666667,0.2290404291676222,0.031099064205041
2000-01-01 00:00:09.761111111,9.761111111111113,-0.1748010561861622,0.0784068151761308
2000-01-01 00:00:09.780555555,9.780555555555557,-0.2901843377158149,0.2360993184130968
2000-01-01 00:00:09.800000000,9.8,-0.3017226658687802,-0.0004394364423521
2000-01-01 00:00:09.819444444,9.819444444444445,-0.3478759784806413,-0.0162086867660487
2000-01-01 00:00:09.838888888,9.838888888888889,-0.3132609940217454,-0.0477471874134419
2000-01-01 00:00:09.858333333,9.858333333333334,-0.3017226658687802,-0.0004394364423521
2000-01-01 00:00:09.877777777,9.877777777777778,-0.2901843377158149,-0.0162086867660487
2000-01-01 00:00:09.897222222,9.897222222222222,-0.2440310251039538,0.1572530667946138
2000-01-01 00:00:09.916666666,9.916666666666666,0.3444237106972749,0.0941760654998274
2000-01-01 00:00:09.936111111,9.936111111111112,1.2097983221696702,-1.498518217193529
2000-01-01 00:00:09.955555555,9.955555555555556,1.7982530579708988,-3.390828256037121
2000-01-01 00:00:09.975000000,9.975,1.2213366503226353,-2.444673236615325
2000-01-01 00:00:09.994444444,9.994444444444444,-0.2901843377158149,-1.3092872133091698
2000-01-01 00:00:10.013888888,10.01388888888889,-1.4670938093182724,-0.6154401990665195
2000-01-01 00:00:10.033333333,10.033333333333331,-1.409402168553446,-0.0950549383845317
2000-01-01 00:00:10.052777777,10.052777777777775,-1.0517139958115227,0.2834070693841866
2000-01-01 00:00:10.072222222,10.072222222222225,-0.7863324482933215,0.4568688229448492
2000-01-01 00:00:10.091666666,10.091666666666669,-0.7286408075284951,0.5357150745633322
2000-01-01 00:00:10.111111111,10.11111111111111,-0.7401791356814604,0.6460998268292084
2000-01-01 00:00:10.130555555,10.130555555555556,-0.7055641512225647,0.6934075778002982
2000-01-01 00:00:10.150000000,10.15,-0.7401791356814604,0.8037923300661743
2000-01-01 00:00:10.169444444,10.169444444444444,-0.590180869692912,0.7564845790950846
2000-01-01 00:00:10.188888888,10.188888888888888,-0.4747975881632592,0.7249460784476913
2000-01-01 00:00:10.208333333,10.208333333333334,-0.2786460095628496,0.740715328771388
2000-01-01 00:00:10.227777777,10.227777777777778,-0.1055710872683706,0.6776383274766016
2000-01-01 00:00:10.247222222,10.247222222222222,0.1021188194850042,0.5514843248870288
2000-01-01 00:00:10.266666666,10.266666666666667,0.2059637728616916,0.3780225713263662
2000-01-01 00:00:10.286111111,10.286111111111111,0.2982703980854138,0.2834070693841866
2000-01-01 00:00:10.305555555,10.305555555555555,0.4021153514621012,0.2045608177657036
2000-01-01 00:00:10.325000000,10.325,0.3328853825443096,0.0153298138813444
2000-01-01 00:00:10.344444444,10.344444444444443,0.4251920077680318,-0.0950549383845317
2000-01-01 00:00:10.363888888,10.363888888888887,0.2405787573205874,0.3307148203552764
2000-01-01 00:00:10.383333333,10.383333333333333,0.1136571476379695,1.4976393443088247
2000-01-01 00:00:10.402777777,10.40277777777778,-0.3594143066336065,-0.1896704403267113
2000-01-01 00:00:10.422222222,10.422222222222222,-0.4863359163162245,-0.2369781912978011
2000-01-01 00:00:10.441666666,10.441666666666666,-0.3824909629395371,-0.0477471874134419
2000-01-01 00:00:10.461111111,10.461111111111112,-0.3709526347865718,0.0153298138813444
2000-01-01 00:00:10.480555555,10.480555555555556,-0.2901843377158149,0.0153298138813444
2000-01-01 00:00:10.500000000,10.5,-0.3247993221747107,-0.0319779370897453
2000-01-01 00:00:10.519444444,10.519444444444444,-0.2555693532569191,-0.0319779370897453
2000-01-01 00:00:10.538888888,10.53888888888889,-0.4171059473984329,0.3149455700315798
2000-01-01 00:00:10.558333333,10.558333333333334,0.7136502115921635,-0.7258249513323957
2000-01-01 00:00:10.577777777,10.577777777777778,1.84440637058276,-3.2331357528001545
2000-01-01 00:00:10.597222222,10.597222222222223,1.717484760900142,-2.870442995355133
2000-01-01 00:00:10.616666666,10.616666666666667,0.4136536796150665,-1.656210720430495
2000-01-01 00:00:10.636111111,10.636111111111113,-1.282480558870828,-0.8992867048930582
2000-01-01 00:00:10.655555555,10.655555555555557,-1.4786321374712377,-0.3473629435636773
2000-01-01 00:00:10.675000000,10.675,-1.1209439647293142,0.1730223171183104
2000-01-01 00:00:10.694444444,10.694444444444445,-0.7863324482933215,0.5199458242396356
2000-01-01 00:00:10.713888888,10.713888888888889,-0.6478725104577383,0.5987920758581186
2000-01-01 00:00:10.733333333,10.733333333333334,-0.6824874949166341,0.661869077152905
2000-01-01 00:00:10.752777777,10.752777777777778,-0.7055641512225647,0.6776383274766016
2000-01-01 00:00:10.772222222,10.772222222222222,-0.7401791356814604,0.7880230797424778
2000-01-01 00:00:10.791666666,10.791666666666666,-0.6709491667636688,0.8353308307135675
2000-01-01 00:00:10.811111111,10.811111111111112,-0.5324892289280856,0.898407832008354
2000-01-01 00:00:10.830555555,10.830555555555556,-0.3017226658687802,1.339946841071859
2000-01-01 00:00:10.850000000,10.85,-0.209416040645058,0.9457155829794436
2000-01-01 00:00:10.869444444,10.869444444444444,0.0675038350261084,0.8195615803898709
2000-01-01 00:00:10.888888888,10.88888888888889,-0.0132644620446484,0.2518685687367934
2000-01-01 00:00:10.908333333,10.908333333333331,0.2751937417794833,0.2834070693841866
2000-01-01 00:00:10.927777777,10.927777777777775,0.4598069922269276,0.2045608177657036
2000-01-01 00:00:10.947222222,10.947222222222225,0.4251920077680318,0.0784068151761308
2000-01-01 00:00:10.966666666,10.966666666666669,0.5059603048387886,-0.0162086867660487
2000-01-01 00:00:10.986111111,10.98611111111111,0.3675003670032054,0.0626375648524342
2000-01-01 00:00:11.005555555,11.005555555555556,0.3675003670032054,0.0626375648524342
2000-01-01 00:00:11.025000000,11.025,-0.0363411183505789,0.109945315823524
2000-01-01 00:00:11.044444444,11.044444444444444,-0.2901843377158149,0.2045608177657036
2000-01-01 00:00:11.063888888,11.063888888888888,-0.336337650327676,0.1572530667946138
2000-01-01 00:00:11.083333333,11.083333333333334,-0.336337650327676,0.1572530667946138
2000-01-01 00:00:11.102777777,11.102777777777778,-0.3709526347865718,0.0468683145287376
2000-01-01 00:00:11.122222222,11.122222222222222,-0.336337650327676,0.0626375648524342
2000-01-01 00:00:11.141666666,11.141666666666667,-0.2901843377158149,0.0941760654998274
2000-01-01 00:00:11.161111111,11.161111111111111,-0.3017226658687802,0.2991763197078832
2000-01-01 00:00:11.180555555,11.180555555555555,0.0675038350261084,0.3149455700315798
2000-01-01 00:00:11.200000000,11.2,1.3251816036993227,-1.608902969459405
2000-01-01 00:00:11.219444444,11.219444444444443,2.4213227782310236,-3.611597760568873
2000-01-01 00:00:11.238888888,11.238888888888887,1.4751798696878713,-2.4919809875864147
2000-01-01 00:00:11.258333333,11.258333333333333,-0.3594143066336065,-1.340825713956563
2000-01-01 00:00:11.277777777,11.27777777777778,-1.5594004345419945,-0.6154401990665195
2000-01-01 00:00:11.297222222,11.297222222222222,-1.4440171530123418,-0.0635164377371385
2000-01-01 00:00:11.316666666,11.316666666666666,-1.0401756676585574,0.425330322297456
2000-01-01 00:00:11.336111111,11.336111111111112,-0.7978707764462868,0.6145613261818151
2000-01-01 00:00:11.355555555,11.355555555555556,-0.763255791987391,0.6934075778002982
2000-01-01 00:00:11.375000000,11.375,-0.763255791987391,0.7722538294187812
2000-01-01 00:00:11.394444444,11.394444444444444,-0.7401791356814604,0.898407832008354
2000-01-01 00:00:11.413888888,11.41388888888889,-0.7517174638344257,0.9614848333031404
2000-01-01 00:00:11.433333333,11.433333333333334,-0.6594108386107036,0.977254083626837
2000-01-01 00:00:11.452777777,11.452777777777778,-0.5324892289280856,0.9614848333031404
2000-01-01 00:00:11.472222222,11.472222222222223,-0.3709526347865718,0.898407832008354
2000-01-01 00:00:11.491666666,11.491666666666667,-0.1517243998802317,0.8511000810372642
2000-01-01 00:00:11.511111111,11.511111111111113,0.0444271787201778,0.7564845790950846
2000-01-01 00:00:11.530555555,11.530555555555557,0.1944254447087263,0.6303305765055118
2000-01-01 00:00:11.550000000,11.55,0.3790386951561707,0.504176573915939
2000-01-01 00:00:11.569444444,11.569444444444445,0.5174986329917539,0.3149455700315798
2000-01-01 00:00:11.588888888,11.588888888888889,0.4136536796150665,0.1730223171183104
2000-01-01 00:00:11.608333333,11.608333333333334,0.4482686640739623,0.1572530667946138
2000-01-01 00:00:11.627777777,11.627777777777778,0.3675003670032054,0.2045608177657036
2000-01-01 00:00:11.647222222,11.647222222222222,0.3098087262383791,0.26763781906049
2000-01-01 00:00:11.666666666,11.666666666666666,-0.1632627280331969,0.2518685687367934
2000-01-01 00:00:11.686111111,11.686111111111112,-0.3478759784806413,0.2991763197078832
2000-01-01 00:00:11.705555555,11.705555555555556,-0.3824909629395371,0.2518685687367934
2000-01-01 00:00:11.725000000,11.725,-0.3709526347865718,0.26763781906049
2000-01-01 00:00:11.744444444,11.744444444444444,-0.3594143066336065,0.26763781906049
2000-01-01 00:00:11.763888888,11.76388888888889,-0.3478759784806413,0.2834070693841866
2000-01-01 00:00:11.783333333,11.783333333333331,-0.3247993221747107,0.2991763197078832
2000-01-01 00:00:11.802777777,11.802777777777775,-0.3247993221747107,0.6460998268292084
2000-01-01 00:00:11.822222222,11.822222222222225,1.3944115726171145,-1.1358254597485071
2000-01-01 00:00:11.841666666,11.841666666666669,2.675165997596259,-3.5169822586266934
2000-01-01 00:00:11.861111111,11.86111111111111,1.2790282910874615,-2.2869807333783587
2000-01-01 00:00:11.880555555,11.880555555555556,-0.9594073705878006,-1.025440707482631
2000-01-01 00:00:11.900000000,11.9,-1.824781982060196,-0.3473629435636773
2000-01-01 00:00:11.919444444,11.919444444444444,-1.4786321374712377,0.2360993184130968
2000-01-01 00:00:11.938888888,11.938888888888888,-1.1209439647293142,0.661869077152905
2000-01-01 00:00:11.958333333,11.958333333333334,-0.9132540579759396,0.8353308307135675
2000-01-01 00:00:11.977777777,11.977777777777778,-0.9247923861289048,0.9614848333031404
2000-01-01 00:00:11.997222222,11.997222222222222,-0.9478690424348352,1.0245618345979268
2000-01-01 00:00:12.016666666,12.016666666666667,-0.9132540579759396,1.0245618345979268
2000-01-01 00:00:12.036111111,12.036111111111111,-0.8901774016700089,1.1034080862164095
2000-01-01 00:00:12.055555555,12.055555555555555,-0.7401791356814604,1.0718695855690166
2000-01-01 00:00:12.075000000,12.075,-0.5324892289280856,1.0718695855690166
2000-01-01 00:00:12.094444444,12.094444444444443,-0.3017226658687802,0.9614848333031404
2000-01-01 00:00:12.113888888,12.113888888888887,-0.0594177746565095,0.898407832008354
2000-01-01 00:00:12.133333333,12.133333333333333,0.1367338039439,0.740715328771388
2000-01-01 00:00:12.152777777,12.15277777777778,0.2867320699324485,0.5672535752107254
2000-01-01 00:00:12.172222222,12.172222222222222,0.2751937417794833,0.4095610719737594
2000-01-01 00:00:12.191666666,12.191666666666666,0.3675003670032054,0.3149455700315798
2000-01-01 00:00:12.211111111,12.211111111111112,0.2982703980854138,0.3307148203552764
2000-01-01 00:00:12.230555555,12.230555555555556,0.2521170854735527,0.3622533210026696
2000-01-01 00:00:12.250000000,12.25,-0.1863393843391275,0.3780225713263662
2000-01-01 00:00:12.269444444,12.269444444444444,-0.4747975881632592,0.3937918216500628
2000-01-01 00:00:12.288888888,12.28888888888889,-0.5440275570810509,0.4095610719737594
2000-01-01 00:00:12.308333333,12.308333333333334,-0.5671042133869814,0.4095610719737594
2000-01-01 00:00:12.327777777,12.327777777777778,-0.4978742444691897,0.4095610719737594
2000-01-01 00:00:12.347222222,12.347222222222223,-0.463259260010294,0.3780225713263662
2000-01-01 00:00:12.366666666,12.366666666666667,-0.4171059473984329,0.3307148203552764
2000-01-01 00:00:12.386111111,12.386111111111113,-0.4171059473984329,0.4726380732685458
2000-01-01 00:00:12.405555555,12.405555555555557,0.1598104602498306,0.5199458242396356
2000-01-01 00:00:12.425000000,12.425,1.417488228923045,-1.1673639603959003
2000-01-01 00:00:12.444444444,12.444444444444445,2.005942964724274,-2.980827747621009
2000-01-01 00:00:12.463888888,12.463888888888889,0.8405718212747815,-1.8454417243148544
2000-01-01 00:00:12.483333333,12.483333333333334,-1.1670972773411754,-0.8204404532745753
2000-01-01 00:00:12.502777777,12.502777777777778,-1.8478586383661264,-0.2054396906504079
2000-01-01 00:00:12.522222222,12.522222222222222,-1.5132471219301336,0.346484070678973
2000-01-01 00:00:12.541666666,12.541666666666666,-1.1094056365763492,0.740715328771388
2000-01-01 00:00:12.561111111,12.561111111111112,-0.9132540579759396,0.8511000810372642
2000-01-01 00:00:12.580555555,12.580555555555556,-0.8786390735170436,0.898407832008354
2000-01-01 00:00:12.600000000,12.6,-0.9247923861289048,0.9299463326557472
2000-01-01 00:00:12.619444444,12.619444444444444,-0.9132540579759396,0.9930233339505335
2000-01-01 00:00:12.638888888,12.63888888888889,-0.8209474327522173,1.0087925842742302
2000-01-01 00:00:12.658333333,12.658333333333331,-0.6247958541518077,0.9930233339505335
2000-01-01 00:00:12.677777777,12.677777777777775,-0.3824909629395371,1.0087925842742302
2000-01-01 00:00:12.697222222,12.697222222222225,-0.1286477435743011,0.8668693313609608
2000-01-01 00:00:12.716666666,12.716666666666669,0.0675038350261084,0.7722538294187812
2000-01-01 00:00:12.736111111,12.73611111111111,0.1944254447087263,0.583022825534422
2000-01-01 00:00:12.755555555,12.755555555555556,0.3328853825443096,0.504176573915939
2000-01-01 00:00:12.775000000,12.775,0.2290404291676222,0.3149455700315798
2000-01-01 00:00:12.794444444,12.794444444444444,0.3213470543913443,0.26763781906049
2000-01-01 00:00:12.813888888,12.813888888888888,0.2521170854735527,0.3307148203552764
2000-01-01 00:00:12.833333333,12.833333333333334,0.0444271787201778,0.425330322297456
2000-01-01 00:00:12.852777777,12.852777777777778,-0.3709526347865718,0.4726380732685458
2000-01-01 00:00:12.872222222,12.872222222222222,-0.4517209318573287,0.4410995726211526
2000-01-01 00:00:12.891666666,12.891666666666667,-0.463259260010294,0.4410995726211526
2000-01-01 00:00:12.911111111,12.911111111111111,-0.463259260010294,0.425330322297456
2000-01-01 00:00:12.930555555,12.930555555555555,-0.4055676192454676,0.4095610719737594
2000-01-01 00:00:12.950000000,12.95,-0.3594143066336065,0.3780225713263662
2000-01-01 00:00:12.969444444,12.969444444444443,-0.3709526347865718,0.5357150745633322
2000-01-01 00:00:12.988888888,12.988888888888887,0.3790386951561707,0.3780225713263662
2000-01-01 00:00:13.008333333,13.008333333333333,1.463641541534906,-1.7035184714015847
2000-01-01 00:00:13.027777777,13.02777777777778,1.9713279802653776,-2.949289246973616
2000-01-01 00:00:13.047222222,13.047222222222222,1.0136467435692604,-1.766595472696371
2000-01-01 00:00:13.066666666,13.066666666666666,-0.9132540579759396,-0.788901952627182
2000-01-01 00:00:13.086111111,13.086111111111112,-1.617092075306821,-0.2369781912978011
2000-01-01 00:00:13.105555555,13.105555555555556,-1.363248855941585,0.346484070678973
2000-01-01 00:00:13.125000000,13.125,-0.9940223550466964,0.7249460784476913
2000-01-01 00:00:13.144444444,13.144444444444444,-0.7863324482933215,0.8668693313609608
2000-01-01 00:00:13.163888888,13.16388888888889,-0.7747941201403562,0.9299463326557472
2000-01-01 00:00:13.183333333,13.183333333333334,-0.7978707764462868,0.977254083626837
2000-01-01 00:00:13.202777777,13.202777777777778,-0.8324857609051826,1.0087925842742302
2000-01-01 00:00:13.222222222,13.222222222222223,-0.7747941201403562,1.0876388358927132
2000-01-01 00:00:13.241666666,13.241666666666667,-0.636334182304773,1.0876388358927132
2000-01-01 00:00:13.261111111,13.261111111111113,-0.4171059473984329,1.05610033524532
2000-01-01 00:00:13.280555555,13.280555555555557,-0.1863393843391275,0.9930233339505335
2000-01-01 00:00:13.300000000,13.3,0.0444271787201778,0.8353308307135675
2000-01-01 00:00:13.319444444,13.319444444444445,0.1944254447087263,0.661869077152905
2000-01-01 00:00:13.338888888,13.338888888888889,0.3559620388502401,0.5199458242396356
2000-01-01 00:00:13.358333333,13.358333333333334,0.4713453203798928,0.4410995726211526
2000-01-01 00:00:13.377777777,13.377777777777778,0.4136536796150665,0.2834070693841866
2000-01-01 00:00:13.397222222,13.397222222222222,0.4598069922269276,0.2518685687367934
2000-01-01 00:00:13.416666666,13.416666666666666,0.3675003670032054,0.26763781906049
2000-01-01 00:00:13.436111111,13.436111111111112,0.1251954757909347,0.3307148203552764
2000-01-01 00:00:13.455555555,13.455555555555556,-0.2901843377158149,0.3780225713263662
2000-01-01 00:00:13.475000000,13.475,-0.3594143066336065,0.4095610719737594
2000-01-01 00:00:13.494444444,13.494444444444444,-0.3247993221747107,0.3780225713263662
2000-01-01 00:00:13.513888888,13.51388888888889,-0.2901843377158149,0.3307148203552764
2000-01-01 00:00:13.533333333,13.533333333333331,-0.3132609940217454,0.3307148203552764
2000-01-01 00:00:13.552777777,13.552777777777775,-0.2440310251039538,0.2518685687367934
2000-01-01 00:00:13.572222222,13.572222222222225,-0.3017226658687802,0.4095610719737594
2000-01-01 00:00:13.591666666,13.591666666666669,0.2405787573205874,0.3937918216500628
2000-01-01 00:00:13.611111111,13.61111111111111,1.463641541534906,-1.6877492210778882
2000-01-01 00:00:13.630555555,13.630555555555556,2.4213227782310236,-3.375059005713424
2000-01-01 00:00:13.650000000,13.65,1.42902655707601,-2.129288230141393
2000-01-01 00:00:13.669444444,13.669444444444444,-0.7055641512225647,-1.025440707482631
2000-01-01 00:00:13.688888888,13.68888888888889,-1.5017087937771685,-0.4104399448584637
2000-01-01 00:00:13.708333333,13.708333333333334,-1.2940188870237934,0.2045608177657036
2000-01-01 00:00:13.727777777,13.727777777777778,-0.9247923861289048,0.7091768281239947
2000-01-01 00:00:13.747222222,13.747222222222222,-0.636334182304773,0.8353308307135675
2000-01-01 00:00:13.766666666,13.766666666666667,-0.6478725104577383,0.8826385816846574
2000-01-01 00:00:13.786111111,13.786111111111111,-0.6824874949166341,0.9141770823320504
2000-01-01 00:00:13.805555555,13.805555555555555,-0.7286408075284951,1.0245618345979268
2000-01-01 00:00:13.825000000,13.825,-0.636334182304773,1.0876388358927132
2000-01-01 00:00:13.844444444,13.844444444444443,-0.5324892289280856,1.166485087511196
2000-01-01 00:00:13.863888888,13.863888888888887,-0.3709526347865718,1.1034080862164095
2000-01-01 00:00:13.883333333,13.883333333333333,-0.1632627280331969,1.05610033524532
2000-01-01 00:00:13.902777777,13.90277777777778,0.0213505224142473,0.9141770823320504
2000-01-01 00:00:13.922222222,13.922222222222222,0.1828871165557611,0.7249460784476913
2000-01-01 00:00:13.941666666,13.941666666666666,0.3790386951561707,0.6303305765055118
2000-01-01 00:00:13.961111111,13.961111111111112,0.5867286019095456,0.583022825534422
2000-01-01 00:00:13.980555555,13.980555555555556,0.563651945603615,0.3149455700315798
2000-01-01 00:00:14.000000000,14.0,0.6328819145214066,0.1730223171183104
2000-01-01 00:00:14.019444444,14.019444444444444,0.563651945603615,0.2045608177657036
2000-01-01 00:00:14.038888888,14.03888888888889,0.4482686640739623,0.2203300680894002
2000-01-01 00:00:14.058333333,14.058333333333334,0.0328888505672126,0.346484070678973
2000-01-01 00:00:14.077777777,14.077777777777778,-0.209416040645058,0.3780225713263662
2000-01-01 00:00:14.097222222,14.097222222222223,-0.2555693532569191,0.3149455700315798
2000-01-01 00:00:14.116666666,14.116666666666667,-0.2440310251039538,0.26763781906049
2000-01-01 00:00:14.136111111,14.136111111111113,-0.2555693532569191,0.2203300680894002
2000-01-01 00:00:14.155555555,14.155555555555557,-0.2324926969509885,0.2045608177657036
2000-01-01 00:00:14.175000000,14.175,-0.1863393843391275,0.26763781906049
2000-01-01 00:00:14.194444444,14.194444444444445,-0.3594143066336065,0.6776383274766016
2000-01-01 00:00:14.213888888,14.213888888888889,1.0598000561811216,-0.6942864506850024
2000-01-01 00:00:14.233333333,14.233333333333334,2.5828593723725373,-3.4854437579793003
2000-01-01 00:00:14.252777777,14.252777777777778,2.1097879181009613,-2.917750746326223
2000-01-01 00:00:14.272222222,14.272222222222222,0.1251954757909347,-1.5142874675172255
2000-01-01 00:00:14.291666666,14.291666666666666,-1.4786321374712377,-0.6312094493902161
2000-01-01 00:00:14.311111111,14.311111111111112,-1.4786321374712377,-0.0477471874134419
2000-01-01 00:00:14.330555555,14.330555555555556,-1.028637339505592,0.5199458242396356
2000-01-01 00:00:14.350000000,14.35,-0.7171024793755298,0.7722538294187812
2000-01-01 00:00:14.369444444,14.369444444444444,-0.7171024793755298,0.7880230797424778
2000-01-01 00:00:14.388888888,14.38888888888889,-0.7401791356814604,0.8826385816846574
2000-01-01 00:00:14.408333333,14.408333333333331,-0.763255791987391,1.0087925842742302
2000-01-01 00:00:14.427777777,14.427777777777775,-0.7055641512225647,1.0876388358927132
2000-01-01 00:00:14.447222222,14.447222222222225,-0.636334182304773,1.1034080862164095
2000-01-01 00:00:14.466666666,14.466666666666669,-0.4978742444691897,1.0718695855690166
2000-01-01 00:00:14.486111111,14.48611111111111,-0.3478759784806413,0.9614848333031404
2000-01-01 00:00:14.505555555,14.505555555555556,-0.1517243998802317,0.8826385816846574
2000-01-01 00:00:14.525000000,14.525,0.0790421631790737,0.7722538294187812
2000-01-01 00:00:14.544444444,14.544444444444444,0.2982703980854138,0.6776383274766016
2000-01-01 00:00:14.563888888,14.56388888888889,0.4944219766858234,0.5357150745633322
2000-01-01 00:00:14.583333333,14.583333333333334,0.5982669300625109,0.425330322297456
2000-01-01 00:00:14.602777777,14.602777777777778,0.4713453203798928,0.188791567442007
2000-01-01 00:00:14.622222222,14.622222222222222,0.5059603048387886,0.1257145661472206
2000-01-01 00:00:14.641666666,14.641666666666667,0.4021153514621012,0.1572530667946138
2000-01-01 00:00:14.661111111,14.661111111111111,0.4136536796150665,0.2203300680894002
2000-01-01 00:00:14.680555555,14.680555555555555,-0.0478794465035442,0.3149455700315798
2000-01-01 00:00:14.700000000,14.7,-0.2901843377158149,0.2834070693841866
2000-01-01 00:00:14.719444444,14.719444444444443,-0.3709526347865718,0.26763781906049
2000-01-01 00:00:14.738888888,14.738888888888887,-0.3940292910925023,0.188791567442007
2000-01-01 00:00:14.758333333,14.758333333333333,-0.3940292910925023,0.2518685687367934
2000-01-01 00:00:14.777777777,14.77777777777778,-0.3247993221747107,0.26763781906049
2000-01-01 00:00:14.797222222,14.797222222222222,-0.2786460095628496,0.2045608177657036
2000-01-01 00:00:14.816666666,14.816666666666666,-0.2786460095628496,0.2834070693841866
2000-01-01 00:00:14.836111111,14.836111111111112,-0.2786460095628496,0.583022825534422
2000-01-01 00:00:14.855555555,14.855555555555556,1.336719931852288,-0.7415942016560922
2000-01-01 00:00:14.875000000,14.875,2.859779248043703,-3.4696745076556037
2000-01-01 00:00:14.894444444,14.894444444444444,2.3405544811602663,-2.9019814960025263
2000-01-01 00:00:14.913888888,14.91388888888889,0.3905770233091359,-1.5931337191357084
2000-01-01 00:00:14.933333333,14.933333333333334,-1.7209370286835084,-0.7258249513323957
2000-01-01 00:00:14.952777777,14.952777777777778,-1.8593969665190917,-0.1581319396793181
2000-01-01 00:00:14.972222222,14.972222222222223,-1.3863255122475155,0.4095610719737594
2000-01-01 00:00:14.991666666,14.991666666666667,-0.9940223550466964,0.7722538294187812
2000-01-01 00:00:15.011111111,15.011111111111113,-0.9247923861289048,0.8195615803898709
2000-01-01 00:00:15.030555555,15.030555555555557,-0.8901774016700089,0.8826385816846574
2000-01-01 00:00:15.050000000,15.05,-0.9478690424348352,0.9141770823320504
2000-01-01 00:00:15.069444444,15.069444444444445,-0.9940223550466964,0.9299463326557472
2000-01-01 00:00:15.088888888,15.088888888888889,-0.93633071428187,1.0087925842742302
2000-01-01 00:00:15.108333333,15.108333333333334,-0.7863324482933215,1.0718695855690166
2000-01-01 00:00:15.127777777,15.127777777777778,-0.5786425415399467,1.0403310849216234
2000-01-01 00:00:15.147222222,15.147222222222222,-0.3017226658687802,0.9457155829794436
2000-01-01 00:00:15.166666666,15.166666666666666,-0.0940327591154053,0.8195615803898709
2000-01-01 00:00:15.186111111,15.186111111111112,0.0444271787201778,0.6460998268292084
2000-01-01 00:00:15.205555555,15.205555555555556,0.2405787573205874,0.5514843248870288
2000-01-01 00:00:15.225000000,15.225,0.4021153514621012,0.4568688229448492
2000-01-01 00:00:15.244444444,15.244444444444444,0.3444237106972749,0.2203300680894002
2000-01-01 00:00:15.263888888,15.26388888888889,0.436730335920997,0.188791567442007
2000-01-01 00:00:15.283333333,15.283333333333331,0.3444237106972749,0.1572530667946138
2000-01-01 00:00:15.302777777,15.302777777777775,0.2751937417794833,0.188791567442007
2000-01-01 00:00:15.322222222,15.322222222222225,-0.1286477435743011,0.2360993184130968
2000-01-01 00:00:15.341666666,15.341666666666669,-0.4401826037043634,0.3622533210026696
2000-01-01 00:00:15.361111111,15.36111111111111,-0.4517209318573287,0.2834070693841866
2000-01-01 00:00:15.380555555,15.380555555555556,-0.4863359163162245,0.26763781906049
2000-01-01 00:00:15.400000000,15.4,-0.4978742444691897,0.2360993184130968
2000-01-01 00:00:15.419444444,15.419444444444444,-0.463259260010294,0.2045608177657036
2000-01-01 00:00:15.438888888,15.43888888888889,-0.4747975881632592,0.2360993184130968
2000-01-01 00:00:15.458333333,15.458333333333334,-0.4286442755513981,0.26763781906049
2000-01-01 00:00:15.477777777,15.477777777777778,-0.4055676192454676,0.6460998268292084
2000-01-01 00:00:15.497222222,15.497222222222222,1.0598000561811216,-0.1739011900030147
2000-01-01 00:00:15.516666666,15.516666666666667,2.0867112617950307,-2.3973654856442352
2000-01-01 00:00:15.536111111,15.536111111111111,2.190556215171718,-3.1542895011816716
2000-01-01 00:00:15.555555555,15.555555555555555,1.0021084154162954,-2.00313422755182
2000-01-01 00:00:15.575000000,15.575,-0.8209474327522173,-1.0412099578063276
2000-01-01 00:00:15.594444444,15.594444444444443,-1.7786286694483346,-0.4104399448584637
2000-01-01 00:00:15.613888888,15.613888888888887,-1.663245387918682,0.1414838164709172
2000-01-01 00:00:15.633333333,15.633333333333333,-1.236327246258967,0.5672535752107254
2000-01-01 00:00:15.652777777,15.65277777777778,-0.9594073705878006,0.7880230797424778
2000-01-01 00:00:15.672222222,15.672222222222222,-0.9247923861289048,0.7722538294187812
2000-01-01 00:00:15.691666666,15.691666666666666,-0.9247923861289048,0.898407832008354
2000-01-01 00:00:15.711111111,15.711111111111112,-0.93633071428187,0.9614848333031404
2000-01-01 00:00:15.730555555,15.730555555555556,-0.8671007453640784,1.0087925842742302
2000-01-01 00:00:15.750000000,15.75,-0.7978707764462868,0.9930233339505335
2000-01-01 00:00:15.769444444,15.769444444444444,-0.6594108386107036,0.977254083626837
2000-01-01 00:00:15.788888888,15.78888888888889,-0.3824909629395371,0.9141770823320504
2000-01-01 00:00:15.808333333,15.808333333333334,-0.1517243998802317,0.8668693313609608
2000-01-01 00:00:15.827777777,15.827777777777778,0.0444271787201778,0.7722538294187812
2000-01-01 00:00:15.847222222,15.847222222222223,0.2521170854735527,0.583022825534422
2000-01-01 00:00:15.866666666,15.866666666666667,0.3790386951561707,0.4726380732685458
2000-01-01 00:00:15.886111111,15.886111111111113,0.4136536796150665,0.2991763197078832
2000-01-01 00:00:15.905555555,15.905555555555557,0.3559620388502401,0.2045608177657036
2000-01-01 00:00:15.925000000,15.925,0.4021153514621012,0.2045608177657036
2000-01-01 00:00:15.944444444,15.944444444444445,0.2751937417794833,0.2360993184130968
2000-01-01 00:00:15.963888888,15.963888888888889,0.0559655068731431,0.3149455700315798
2000-01-01 00:00:15.983333333,15.983333333333334,-0.2786460095628496,0.3149455700315798
2000-01-01 00:00:16.002777777,16.002777777777776,-0.3824909629395371,0.2991763197078832
2000-01-01 00:00:16.022222222,16.022222222222222,-0.4286442755513981,0.2834070693841866
2000-01-01 00:00:16.041666666,16.041666666666668,-0.463259260010294,0.2834070693841866
2000-01-01 00:00:16.061111111,16.06111111111111,-0.3824909629395371,0.2991763197078832
2000-01-01 00:00:16.080555555,16.080555555555556,-0.3247993221747107,0.26763781906049
2000-01-01 00:00:16.100000000,16.1,-0.3247993221747107,0.2834070693841866
2000-01-01 00:00:16.119444444,16.119444444444444,-0.2324926969509885,0.5672535752107254
2000-01-01 00:00:16.138888888,16.13888888888889,1.0944150406400175,-0.8992867048930582
2000-01-01 00:00:16.158333333,16.158333333333335,2.4674760908428843,-3.3277512547423345
2000-01-01 00:00:16.177777777,16.177777777777777,1.8213297142768297,-2.5392887385575045
2000-01-01 00:00:16.197222222,16.197222222222223,0.2290404291676222,-1.372364214603956
2000-01-01 00:00:16.216666666,16.21666666666667,-1.4670938093182724,-0.6469786997139126
2000-01-01 00:00:16.236111111,16.23611111111111,-1.6286304034597865,-0.0950549383845317
2000-01-01 00:00:16.255555555,16.255555555555556,-1.236327246258967,0.4095610719737594
2000-01-01 00:00:16.274999999,16.275,-0.8786390735170436,0.740715328771388
2000-01-01 00:00:16.294444444,16.294444444444444,-0.763255791987391,0.8511000810372642
2000-01-01 00:00:16.313888888,16.31388888888889,-0.8094091045992521,0.9141770823320504
2000-01-01 00:00:16.333333333,16.333333333333332,-0.8440240890581479,0.9614848333031404
2000-01-01 00:00:16.352777777,16.352777777777778,-0.8324857609051826,1.05610033524532
2000-01-01 00:00:16.372222222,16.372222222222224,-0.8209474327522173,1.0876388358927132
2000-01-01 00:00:16.391666666,16.391666666666666,-0.6478725104577383,1.0876388358927132
2000-01-01 00:00:16.411111111,16.41111111111111,-0.4401826037043634,1.05610033524532
2000-01-01 00:00:16.430555555,16.430555555555557,-0.1978777124920927,0.9614848333031404
2000-01-01 00:00:16.450000000,16.45,0.0559655068731431,0.8353308307135675
2000-01-01 00:00:16.469444444,16.469444444444445,0.1828871165557611,0.661869077152905
2000-01-01 00:00:16.488888888,16.48888888888889,0.3328853825443096,0.5199458242396356
2000-01-01 00:00:16.508333333,16.508333333333333,0.5290369611447192,0.425330322297456
2000-01-01 00:00:16.527777777,16.52777777777778,0.4713453203798928,0.26763781906049
2000-01-01 00:00:16.547222222,16.54722222222222,0.5290369611447192,0.2203300680894002
2000-01-01 00:00:16.566666666,16.566666666666666,0.4713453203798928,0.1572530667946138
2000-01-01 00:00:16.586111111,16.586111111111112,0.3790386951561707,0.188791567442007
2000-01-01 00:00:16.605555555,16.605555555555554,-0.0248027901976137,0.2203300680894002
2000-01-01 00:00:16.625000000,16.625,-0.2786460095628496,0.3307148203552764
2000-01-01 00:00:16.644444444,16.644444444444446,-0.3132609940217454,0.3149455700315798
2000-01-01 00:00:16.663888888,16.663888888888888,-0.3247993221747107,0.2834070693841866
2000-01-01 00:00:16.683333333,16.683333333333334,-0.3132609940217454,0.2518685687367934
2000-01-01 00:00:16.702777777,16.70277777777778,-0.3017226658687802,0.2045608177657036
2000-01-01 00:00:16.722222222,16.72222222222222,-0.2671076814098844,0.1572530667946138
2000-01-01 00:00:16.741666666,16.741666666666667,-0.4171059473984329,0.504176573915939
2000-01-01 00:00:16.761111111,16.761111111111113,0.6559585708273372,-0.0162086867660487
2000-01-01 00:00:16.780555555,16.780555555555555,2.155941230712822,-2.870442995355133
2000-01-01 00:00:16.800000000,16.8,2.6867043257492247,-3.343520505066031
2000-01-01 00:00:16.819444444,16.819444444444446,1.0598000561811216,-1.9873649772281232
2000-01-01 00:00:16.838888888,16.83888888888889,-1.190173933647106,-0.9939022068352378
2000-01-01 00:00:16.858333333,16.858333333333334,-1.5478621063890292,-0.3473629435636773
2000-01-01 00:00:16.877777777,16.877777777777776,-1.1786356054941407,0.3149455700315798
2000-01-01 00:00:16.897222222,16.897222222222222,-0.8324857609051826,0.661869077152905
2000-01-01 00:00:16.916666666,16.916666666666668,-0.7286408075284951,0.740715328771388
2000-01-01 00:00:16.936111111,16.93611111111111,-0.8209474327522173,0.7880230797424778
2000-01-01 00:00:16.955555555,16.955555555555556,-0.8555624172111131,0.8353308307135675
2000-01-01 00:00:16.975000000,16.975,-0.8324857609051826,0.9930233339505335
2000-01-01 00:00:16.994444444,16.994444444444444,-0.7055641512225647,1.0718695855690166
2000-01-01 00:00:17.013888888,17.01388888888889,-0.4863359163162245,1.0403310849216234
2000-01-01 00:00:17.033333333,17.033333333333335,-0.2555693532569191,0.9141770823320504
2000-01-01 00:00:17.052777777,17.052777777777777,-0.0478794465035442,0.7880230797424778
2000-01-01 00:00:17.072222222,17.072222222222223,0.1136571476379695,0.583022825534422
2000-01-01 00:00:17.091666666,17.09166666666667,0.3790386951561707,0.4568688229448492
2000-01-01 00:00:17.111111111,17.11111111111111,0.5405752892976845,0.425330322297456
2000-01-01 00:00:17.130555555,17.130555555555556,0.4944219766858234,0.1414838164709172
2000-01-01 00:00:17.149999999,17.15,0.5405752892976845,0.0941760654998274
2000-01-01 00:00:17.169444444,17.169444444444444,0.4136536796150665,0.0626375648524342
2000-01-01 00:00:17.188888888,17.18888888888889,0.2982703980854138,0.1414838164709172
2000-01-01 00:00:17.208333333,17.208333333333332,-0.1748010561861622,0.2518685687367934
2000-01-01 00:00:17.227777777,17.227777777777778,-0.3247993221747107,0.2991763197078832
2000-01-01 00:00:17.247222222,17.247222222222224,-0.3824909629395371,0.2203300680894002
2000-01-01 00:00:17.266666666,17.266666666666666,-0.3824909629395371,0.2045608177657036
2000-01-01 00:00:17.286111111,17.28611111111111,-0.3709526347865718,0.1730223171183104
2000-01-01 00:00:17.305555555,17.305555555555557,-0.3594143066336065,0.1414838164709172
2000-01-01 00:00:17.325000000,17.325,-0.4747975881632592,0.26763781906049
2000-01-01 00:00:17.344444444,17.344444444444445,-0.8786390735170436,0.8511000810372642
2000-01-01 00:00:17.363888888,17.36388888888889,1.0482617280281563,0.4884073235922424
2000-01-01 00:00:17.383333333,17.383333333333333,3.6790005469042377,-1.656210720430495
2000-01-01 00:00:17.402777777,17.40277777777778,1.9944046365713084,-0.8046712029508787
2000-01-01 00:00:17.422222222,17.422222222222224,-0.5324892289280856,-0.1265934390319249
2000-01-01 00:00:17.441666666,17.441666666666666,-0.5555658852340162,-0.0319779370897453
2000-01-01 00:00:17.461111111,17.461111111111112,-0.6017191978458772,0.0153298138813444
2000-01-01 00:00:17.480555555,17.480555555555554,-0.6132575259988424,0.0153298138813444
2000-01-01 00:00:17.500000000,17.5,-0.7055641512225647,-0.0477471874134419
2000-01-01 00:00:17.519444444,17.519444444444446,-0.7978707764462868,-0.0792856880608351
2000-01-01 00:00:17.538888888,17.538888888888888,-0.8671007453640784,-0.1423626893556215
2000-01-01 00:00:17.558333333,17.558333333333334,-0.9132540579759396,-0.1108241887082283
2000-01-01 00:00:17.577777777,17.57777777777778,-0.9017157298229742,-0.1581319396793181
2000-01-01 00:00:17.597222222,17.59722222222222,-0.8094091045992521,-0.1739011900030147
2000-01-01 00:00:17.616666666,17.616666666666667,-0.6940258230695994,-0.2369781912978011
2000-01-01 00:00:17.636111111,17.636111111111113,-0.5671042133869814,-0.3000551925925875
2000-01-01 00:00:17.655555555,17.655555555555555,-0.4401826037043634,-0.2369781912978011
2000-01-01 00:00:17.675000000,17.675,-0.2209543687980233,-0.1108241887082283
2000-01-01 00:00:17.694444444,17.694444444444446,-0.0248027901976137,-0.0477471874134419
2000-01-01 00:00:17.713888888,17.71388888888889,0.1828871165557611,0.0468683145287376
2000-01-01 00:00:17.733333333,17.733333333333334,0.2059637728616916,-0.0792856880608351
2000-01-01 00:00:17.752777777,17.752777777777776,0.3098087262383791,-0.0635164377371385
2000-01-01 00:00:17.772222222,17.772222222222222,0.2405787573205874,-0.0635164377371385
2000-01-01 00:00:17.791666666,17.791666666666668,0.2521170854735527,0.0153298138813444
2000-01-01 00:00:17.811111111,17.81111111111111,-0.1286477435743011,0.1257145661472206
2000-01-01 00:00:17.830555555,17.830555555555556,-0.3132609940217454,0.1414838164709172
2000-01-01 00:00:17.850000000,17.85,-0.4171059473984329,0.1257145661472206
2000-01-01 00:00:17.869444444,17.869444444444444,-0.3940292910925023,0.031099064205041
2000-01-01 00:00:17.888888888,17.88888888888889,-0.4171059473984329,0.0626375648524342
2000-01-01 00:00:17.908333333,17.908333333333335,-0.3709526347865718,0.0941760654998274
2000-01-01 00:00:17.927777777,17.927777777777777,-0.3017226658687802,0.0941760654998274
2000-01-01 00:00:17.947222222,17.947222222222223,-0.3709526347865718,0.3937918216500628
2000-01-01 00:00:17.966666666,17.96666666666667,0.6674968989803024,0.0784068151761308
2000-01-01 00:00:17.986111111,17.98611111111111,2.317477824854336,-2.381596235320538
2000-01-01 00:00:18.005555555,18.005555555555556,3.182852436326731,-3.737751763158446
2000-01-01 00:00:18.025000000,18.025,1.5328715104526975,-2.381596235320538
2000-01-01 00:00:18.044444444,18.044444444444444,-0.7517174638344257,-1.3092872133091698
2000-01-01 00:00:18.063888888,18.06388888888889,-1.917088607283918,-0.5996709487428229
2000-01-01 00:00:18.083333333,18.083333333333332,-1.8017053257542652,-0.0477471874134419
2000-01-01 00:00:18.102777777,18.102777777777774,-1.3747871840945505,0.3937918216500628
2000-01-01 00:00:18.122222222,18.122222222222224,-1.0401756676585574,0.6145613261818151
2000-01-01 00:00:18.141666666,18.141666666666666,-1.028637339505592,0.661869077152905
2000-01-01 00:00:18.161111111,18.16111111111111,-1.0170990113526268,0.8037923300661743
2000-01-01 00:00:18.180555555,18.180555555555557,-1.0863289802704186,0.8353308307135675
2000-01-01 00:00:18.200000000,18.2,-1.0170990113526268,0.9299463326557472
2000-01-01 00:00:18.219444444,18.219444444444445,-0.9940223550466964,0.9299463326557472
2000-01-01 00:00:18.238888888,18.23888888888889,-0.763255791987391,0.9299463326557472
2000-01-01 00:00:18.258333333,18.258333333333333,-0.4978742444691897,0.8511000810372642
2000-01-01 00:00:18.277777777,18.27777777777778,-0.1517243998802317,0.7722538294187812
2000-01-01 00:00:18.297222222,18.297222222222224,0.0444271787201778,0.5987920758581186
2000-01-01 00:00:18.316666666,18.316666666666663,0.2405787573205874,0.4568688229448492
2000-01-01 00:00:18.336111111,18.336111111111112,0.3444237106972749,0.2991763197078832
2000-01-01 00:00:18.355555555,18.35555555555555,0.263655413626518,0.0941760654998274
2000-01-01 00:00:18.375000000,18.375,0.2867320699324485,0.0941760654998274
2000-01-01 00:00:18.394444444,18.39444444444445,0.1944254447087263,0.1257145661472206
2000-01-01 00:00:18.413888888,18.413888888888888,-0.0594177746565095,0.2045608177657036
2000-01-01 00:00:18.433333333,18.433333333333337,-0.509412572622155,0.26763781906049
2000-01-01 00:00:18.452777777,18.45277777777778,-0.6132575259988424,0.2360993184130968
2000-01-01 00:00:18.472222222,18.47222222222222,-0.6940258230695994,0.2203300680894002
2000-01-01 00:00:18.491666666,18.491666666666667,-0.6478725104577383,0.2518685687367934
2000-01-01 00:00:18.511111111,18.511111111111113,-0.6132575259988424,0.2203300680894002
2000-01-01 00:00:18.530555555,18.530555555555555,-0.5209509007751203,0.2518685687367934
2000-01-01 00:00:18.550000000,18.55,-0.5671042133869814,0.504176573915939
2000-01-01 00:00:18.569444444,18.569444444444446,0.8636484775807121,-0.1739011900030147
2000-01-01 00:00:18.588888888,18.58888888888889,2.225171199630614,-2.854673745031437
2000-01-01 00:00:18.608333333,18.608333333333334,2.190556215171718,-2.996596997944706
2000-01-01 00:00:18.627777777,18.627777777777776,0.4251920077680318,-1.656210720430495
2000-01-01 00:00:18.647222222,18.647222222222226,-1.7324753568364737,-0.7573634519797888
2000-01-01 00:00:18.666666666,18.666666666666668,-1.8709352946720568,-0.2054396906504079
2000-01-01 00:00:18.686111111,18.68611111111111,-1.409402168553446,0.3780225713263662
2000-01-01 00:00:18.705555555,18.705555555555556,-1.097867308423384,0.6460998268292084
2000-01-01 00:00:18.725000000,18.725,-1.0055606831996615,0.7091768281239947
2000-01-01 00:00:18.744444444,18.744444444444444,-1.0055606831996615,0.7880230797424778
2000-01-01 00:00:18.763888888,18.76388888888889,-1.028637339505592,0.8826385816846574
2000-01-01 00:00:18.783333333,18.783333333333335,-1.0170990113526268,0.8826385816846574
2000-01-01 00:00:18.802777777,18.802777777777777,-0.9132540579759396,0.898407832008354
2000-01-01 00:00:18.822222222,18.822222222222223,-0.7517174638344257,0.8668693313609608
2000-01-01 00:00:18.841666666,18.84166666666667,-0.4978742444691897,0.8037923300661743
2000-01-01 00:00:18.861111111,18.86111111111111,-0.2671076814098844,0.7249460784476913
2000-01-01 00:00:18.880555555,18.880555555555556,-0.0248027901976137,0.583022825534422
2000-01-01 00:00:18.900000000,18.9,0.0675038350261084,0.425330322297456
2000-01-01 00:00:18.919444444,18.919444444444444,0.1828871165557611,0.2991763197078832
2000-01-01 00:00:18.938888888,18.93888888888889,0.2521170854735527,0.188791567442007
2000-01-01 00:00:18.958333333,18.958333333333332,0.2059637728616916,0.031099064205041
2000-01-01 00:00:18.977777777,18.977777777777774,0.2751937417794833,0.031099064205041
2000-01-01 00:00:18.997222222,18.997222222222224,0.1944254447087263,0.0784068151761308
2000-01-01 00:00:19.016666666,19.016666666666666,0.0790421631790737,0.1572530667946138
2000-01-01 00:00:19.036111111,19.03611111111111,-0.3478759784806413,0.1730223171183104
2000-01-01 00:00:19.055555555,19.055555555555557,-0.5324892289280856,0.1730223171183104
2000-01-01 00:00:19.075000000,19.075,-0.509412572622155,0.188791567442007
2000-01-01 00:00:19.094444444,19.094444444444445,-0.4978742444691897,0.2045608177657036
2000-01-01 00:00:19.113888888,19.11388888888889,-0.463259260010294,0.1572530667946138
2000-01-01 00:00:19.133333333,19.133333333333333,-0.4517209318573287,0.0941760654998274
2000-01-01 00:00:19.152777777,19.15277777777778,-0.4286442755513981,0.1414838164709172
2000-01-01 00:00:19.172222222,19.172222222222224,-0.2555693532569191,0.3937918216500628
2000-01-01 00:00:19.191666666,19.191666666666663,1.2790282910874615,-1.2777487126617766
2000-01-01 00:00:19.211111111,19.211111111111112,2.6520893412903286,-3.5958285102451764
2000-01-01 00:00:19.230555555,19.23055555555555,1.6367164638293852,-2.523519488233808
2000-01-01 00:00:19.250000000,19.25,-0.4978742444691897,-1.372364214603956
2000-01-01 00:00:19.269444444,19.26944444444445,-1.744013684989439,-0.6627479500376092
2000-01-01 00:00:19.288888888,19.288888888888888,-1.5132471219301336,0.0468683145287376
2000-01-01 00:00:19.308333333,19.308333333333337,-1.0517139958115227,0.5672535752107254
2000-01-01 00:00:19.327777777,19.32777777777778,-0.8786390735170436,0.7249460784476913
2000-01-01 00:00:19.347222222,19.34722222222222,-0.8901774016700089,0.7249460784476913
2000-01-01 00:00:19.366666666,19.366666666666667,-0.9017157298229742,0.8037923300661743
2000-01-01 00:00:19.386111111,19.386111111111113,-0.9017157298229742,0.8668693313609608
2000-01-01 00:00:19.405555555,19.405555555555555,-0.8209474327522173,0.9299463326557472
2000-01-01 00:00:19.425000000,19.425,-0.6017191978458772,0.9457155829794436
2000-01-01 00:00:19.444444444,19.444444444444446,-0.3478759784806413,0.8511000810372642
2000-01-01 00:00:19.463888888,19.46388888888889,-0.1171094154213358,0.7091768281239947
2000-01-01 00:00:19.483333333,19.483333333333334,0.1021188194850042,0.5357150745633322
2000-01-01 00:00:19.502777777,19.502777777777776,0.2867320699324485,0.2518685687367934
2000-01-01 00:00:19.522222222,19.522222222222226,0.4598069922269276,0.2360993184130968
2000-01-01 00:00:19.541666666,19.541666666666668,0.4828836485328581,0.109945315823524
2000-01-01 00:00:19.561111111,19.56111111111111,0.5405752892976845,0.0153298138813444
2000-01-01 00:00:19.580555555,19.580555555555556,0.4136536796150665,0.0784068151761308
2000-01-01 00:00:19.600000000,19.6,0.3444237106972749,0.0784068151761308
2000-01-01 00:00:19.619444444,19.619444444444444,-0.0478794465035442,0.1414838164709172
2000-01-01 00:00:19.638888888,19.63888888888889,-0.3824909629395371,0.188791567442007
2000-01-01 00:00:19.658333333,19.658333333333335,-0.4286442755513981,0.188791567442007
2000-01-01 00:00:19.677777777,19.677777777777777,-0.4401826037043634,0.2045608177657036
2000-01-01 00:00:19.697222222,19.697222222222223,-0.4171059473984329,0.1572530667946138
2000-01-01 00:00:19.716666666,19.71666666666667,-0.4055676192454676,0.0941760654998274
2000-01-01 00:00:19.736111111,19.73611111111111,-0.3940292910925023,0.0626375648524342
2000-01-01 00:00:19.755555555,19.755555555555556,-0.4286442755513981,0.26763781906049
2000-01-01 00:00:19.775000000,19.775,0.1367338039439,0.2834070693841866
2000-01-01 00:00:19.794444444,19.794444444444444,1.717484760900142,-1.9715957269044269
2000-01-01 00:00:19.813888888,19.81388888888889,2.9405475451144607,-3.6746747618636593
2000-01-01 00:00:19.833333333,19.833333333333332,1.682869776441246,-2.5077502379101113
2000-01-01 00:00:19.852777777,19.852777777777774,-0.6247958541518077,-1.340825713956563
2000-01-01 00:00:19.872222222,19.872222222222224,-1.744013684989439,-0.6942864506850024
2000-01-01 00:00:19.891666666,19.891666666666666,-1.5017087937771685,-0.0319779370897453
2000-01-01 00:00:19.911111111,19.91111111111111,-1.063252323964488,0.504176573915939
2000-01-01 00:00:19.930555555,19.930555555555557,-0.8440240890581479,0.661869077152905
2000-01-01 00:00:19.950000000,19.95,-0.8786390735170436,0.6934075778002982
2000-01-01 00:00:19.969444444,19.969444444444445,-0.93633071428187,0.7091768281239947
2000-01-01 00:00:19.988888888,19.98888888888889,-0.93633071428187,0.8037923300661743
2000-01-01 00:00:20.008333333,20.008333333333333,-0.8555624172111131,0.9299463326557472
2000-01-01 00:00:20.027777777,20.02777777777778,-0.7055641512225647,0.9141770823320504
2000-01-01 00:00:20.047222222,20.047222222222224,-0.463259260010294,0.8668693313609608
2000-01-01 00:00:20.066666666,20.066666666666663,-0.209416040645058,0.6934075778002982
2000-01-01 00:00:20.086111111,20.086111111111112,0.0444271787201778,0.5357150745633322
2000-01-01 00:00:20.105555555,20.10555555555555,0.1713487884027958,0.3622533210026696
2000-01-01 00:00:20.125000000,20.125,0.3444237106972749,0.2360993184130968
2000-01-01 00:00:20.144444444,20.14444444444445,0.4944219766858234,0.188791567442007
2000-01-01 00:00:20.163888888,20.163888888888888,0.4598069922269276,0.0153298138813444
2000-01-01 00:00:20.183333333,20.183333333333337,0.436730335920997,-0.0792856880608351
2000-01-01 00:00:20.202777777,20.20277777777778,0.2867320699324485,0.0153298138813444
2000-01-01 00:00:20.222222222,20.22222222222222,0.1944254447087263,0.0468683145287376
2000-01-01 00:00:20.241666666,20.241666666666667,-0.2555693532569191,0.109945315823524
2000-01-01 00:00:20.261111111,20.261111111111113,-0.3940292910925023,0.1572530667946138
2000-01-01 00:00:20.280555555,20.280555555555555,-0.4055676192454676,0.109945315823524
2000-01-01 00:00:20.300000000,20.3,-0.4401826037043634,0.0784068151761308
2000-01-01 00:00:20.319444444,20.319444444444446,-0.4401826037043634,-0.0004394364423521
2000-01-01 00:00:20.338888888,20.33888888888889,-0.3824909629395371,-0.0004394364423521
2000-01-01 00:00:20.358333333,20.358333333333334,-0.3478759784806413,0.0468683145287376
2000-01-01 00:00:20.377777777,20.377777777777776,-0.4747975881632592,0.3307148203552764
2000-01-01 00:00:20.397222222,20.397222222222226,0.4828836485328581,-0.0477471874134419
2000-01-01 00:00:20.416666666,20.416666666666668,2.155941230712822,-2.6181349901759874
2000-01-01 00:00:20.436111111,20.43611111111111,3.1020841392559744,-3.848136515424322
2000-01-01 00:00:20.455555555,20.455555555555556,1.6021014793704893,-2.5392887385575045
2000-01-01 00:00:20.475000000,20.475,-0.7747941201403562,-1.419671965575046
2000-01-01 00:00:20.494444444,20.494444444444444,-1.7670903412953691,-0.7100557010086991
2000-01-01 00:00:20.513888888,20.51388888888889,-1.6286304034597865,-0.1739011900030147
2000-01-01 00:00:20.533333333,20.533333333333335,-1.2132505899530366,0.3307148203552764
2000-01-01 00:00:20.552777777,20.552777777777777,-0.9247923861289048,0.583022825534422
2000-01-01 00:00:20.572222222,20.572222222222223,-0.9132540579759396,0.661869077152905
2000-01-01 00:00:20.591666666,20.59166666666667,-0.9017157298229742,0.7564845790950846
2000-01-01 00:00:20.611111111,20.61111111111111,-0.9132540579759396,0.8826385816846574
2000-01-01 00:00:20.630555555,20.630555555555556,-0.8901774016700089,0.898407832008354
2000-01-01 00:00:20.650000000,20.65,-0.8324857609051826,0.9299463326557472
2000-01-01 00:00:20.669444444,20.669444444444444,-0.6709491667636688,0.8826385816846574
2000-01-01 00:00:20.688888888,20.68888888888889,-0.4517209318573287,0.8353308307135675
2000-01-01 00:00:20.708333333,20.708333333333332,-0.1517243998802317,0.740715328771388
2000-01-01 00:00:20.727777777,20.727777777777774,0.1021188194850042,0.583022825534422
2000-01-01 00:00:20.747222222,20.747222222222224,0.3098087262383791,0.346484070678973
2000-01-01 00:00:20.766666666,20.766666666666666,0.436730335920997,0.188791567442007
2000-01-01 00:00:20.786111111,20.78611111111111,0.4828836485328581,0.0626375648524342
2000-01-01 00:00:20.805555555,20.805555555555557,0.4828836485328581,-0.0950549383845317
2000-01-01 00:00:20.825000000,20.825,0.4136536796150665,-0.0319779370897453
2000-01-01 00:00:20.844444444,20.844444444444445,0.3098087262383791,-0.0162086867660487
2000-01-01 00:00:20.863888888,20.86388888888889,-0.0017261338916831,0.031099064205041
2000-01-01 00:00:20.883333333,20.883333333333333,-0.3709526347865718,0.109945315823524
2000-01-01 00:00:20.902777777,20.90277777777778,-0.4747975881632592,0.0468683145287376
2000-01-01 00:00:20.922222222,20.922222222222224,-0.509412572622155,0.0468683145287376
2000-01-01 00:00:20.941666666,20.941666666666663,-0.4401826037043634,0.0468683145287376
2000-01-01 00:00:20.961111111,20.961111111111112,-0.4055676192454676,0.0626375648524342
2000-01-01 00:00:20.980555555,20.98055555555555,-0.3594143066336065,0.031099064205041
2000-01-01 00:00:21.000000000,21.0,-0.3594143066336065,0.1257145661472206
2000-01-01 00:00:21.019444444,21.01944444444445,-0.1863393843391275,0.3780225713263662
2000-01-01 00:00:21.038888888,21.038888888888888,1.4867181978408366,-1.1673639603959003
2000-01-01 00:00:21.058333333,21.058333333333337,3.1943907644796963,-3.800828764453232
2000-01-01 00:00:21.077777777,21.07777777777778,2.617474356831433,-3.1227510005342785
2000-01-01 00:00:21.097222222,21.09722222222222,0.3905770233091359,-1.766595472696371
2000-01-01 00:00:21.116666666,21.116666666666667,-1.6863220442246123,-0.946594455864148
2000-01-01 00:00:21.136111111,21.136111111111113,-1.8132436539072303,-0.4262091951821602
2000-01-01 00:00:21.155555555,21.155555555555555,-1.4209404967064114,0.1572530667946138
2000-01-01 00:00:21.175000000,21.175,-1.0747906521174533,0.5514843248870288
2000-01-01 00:00:21.194444444,21.194444444444446,-0.9247923861289048,0.6460998268292084
2000-01-01 00:00:21.213888888,21.21388888888889,-0.93633071428187,0.6460998268292084
2000-01-01 00:00:21.233333333,21.233333333333334,-1.0170990113526268,0.7249460784476913
2000-01-01 00:00:21.252777777,21.252777777777776,-1.0401756676585574,0.7564845790950846
2000-01-01 00:00:21.272222222,21.272222222222226,-1.0170990113526268,0.8511000810372642
2000-01-01 00:00:21.291666666,21.291666666666668,-0.8901774016700089,0.8826385816846574
2000-01-01 00:00:21.311111111,21.31111111111111,-0.6940258230695994,0.8353308307135675
2000-01-01 00:00:21.330555555,21.330555555555556,-0.463259260010294,0.8037923300661743
2000-01-01 00:00:21.350000000,21.35,-0.2555693532569191,0.661869077152905
2000-01-01 00:00:21.369444444,21.369444444444444,-0.0248027901976137,0.5199458242396356
2000-01-01 00:00:21.388888888,21.38888888888889,0.1367338039439,0.346484070678973
2000-01-01 00:00:21.408333333,21.408333333333335,0.2405787573205874,0.2360993184130968
2000-01-01 00:00:21.427777777,21.427777777777777,0.3790386951561707,0.2203300680894002
2000-01-01 00:00:21.447222222,21.447222222222223,0.3905770233091359,0.109945315823524
2000-01-01 00:00:21.466666666,21.46666666666667,0.3675003670032054,-0.0477471874134419
2000-01-01 00:00:21.486111111,21.48611111111111,0.2751937417794833,-0.0319779370897453
2000-01-01 00:00:21.505555555,21.505555555555556,0.1713487884027958,-0.0004394364423521
2000-01-01 00:00:21.525000000,21.525,0.0559655068731431,0.0941760654998274
2000-01-01 00:00:21.544444444,21.544444444444444,-0.3709526347865718,0.1414838164709172
2000-01-01 00:00:21.563888888,21.56388888888889,-0.4863359163162245,0.1730223171183104
2000-01-01 00:00:21.583333333,21.583333333333332,-0.4978742444691897,0.109945315823524
2000-01-01 00:00:21.602777777,21.602777777777774,-0.4978742444691897,0.031099064205041
2000-01-01 00:00:21.622222222,21.622222222222224,-0.4863359163162245,0.031099064205041
2000-01-01 00:00:21.641666666,21.641666666666666,-0.4171059473984329,0.031099064205041
2000-01-01 00:00:21.661111111,21.66111111111111,-0.3478759784806413,0.109945315823524
2000-01-01 00:00:21.680555555,21.680555555555557,-0.3940292910925023,0.4568688229448492
2000-01-01 00:00:21.700000000,21.7,1.2559516347815312,-0.5996709487428229
2000-01-01 00:00:21.719444444,21.719444444444445,2.663627669443294,-3.201597252152762
2000-01-01 00:00:21.738888888,21.73888888888889,2.7097809820551553,-3.2962127540949413
2000-01-01 00:00:21.758333333,21.758333333333333,0.9444167746514688,-1.9715957269044269
2000-01-01 00:00:21.777777777,21.77777777777778,-1.3747871840945505,-1.0412099578063276
2000-01-01 00:00:21.797222222,21.797222222222224,-1.7670903412953691,-0.4262091951821602
2000-01-01 00:00:21.816666666,21.816666666666663,-1.409402168553446,0.109945315823524
2000-01-01 00:00:21.836111111,21.836111111111112,-1.0863289802704186,0.4726380732685458
2000-01-01 00:00:21.855555555,21.85555555555555,-0.8901774016700089,0.5672535752107254
2000-01-01 00:00:21.875000000,21.875,-0.9247923861289048,0.6303305765055118
2000-01-01 00:00:21.894444444,21.89444444444445,-0.9478690424348352,0.7091768281239947
2000-01-01 00:00:21.913888888,21.913888888888888,-0.9594073705878006,0.7880230797424778
2000-01-01 00:00:21.933333333,21.933333333333337,-0.9594073705878006,0.8037923300661743
2000-01-01 00:00:21.952777777,21.95277777777778,-0.8671007453640784,0.8511000810372642
2000-01-01 00:00:21.972222222,21.97222222222222,-0.6940258230695994,0.7880230797424778
2000-01-01 00:00:21.991666666,21.991666666666667,-0.4401826037043634,0.7564845790950846
2000-01-01 00:00:22.011111111,22.011111111111113,-0.1632627280331969,0.6460998268292084
2000-01-01 00:00:22.030555555,22.030555555555555,0.0559655068731431,0.583022825534422
2000-01-01 00:00:22.050000000,22.05,0.2175021010146569,0.3622533210026696
2000-01-01 00:00:22.069444444,22.069444444444446,0.263655413626518,0.188791567442007
2000-01-01 00:00:22.088888888,22.08888888888889,0.3444237106972749,0.1257145661472206
2000-01-01 00:00:22.108333333,22.108333333333334,0.3905770233091359,0.0941760654998274
2000-01-01 00:00:22.127777777,22.127777777777776,0.3328853825443096,-0.0162086867660487
2000-01-01 00:00:22.147222222,22.147222222222226,0.3790386951561707,-0.0004394364423521
2000-01-01 00:00:22.166666666,22.166666666666668,0.2867320699324485,0.0153298138813444
2000-01-01 00:00:22.186111111,22.18611111111111,0.2521170854735527,-0.0004394364423521
2000-01-01 00:00:22.205555555,22.205555555555556,-0.1748010561861622,0.0784068151761308
2000-01-01 00:00:22.225000000,22.225,-0.4286442755513981,0.1730223171183104
2000-01-01 00:00:22.244444444,22.244444444444444,-0.463259260010294,0.1414838164709172
2000-01-01 00:00:22.263888888,22.26388888888889,-0.4401826037043634,0.1414838164709172
2000-01-01 00:00:22.283333333,22.283333333333335,-0.4401826037043634,0.031099064205041
2000-01-01 00:00:22.302777777,22.302777777777777,-0.4401826037043634,-0.0004394364423521
2000-01-01 00:00:22.322222222,22.322222222222223,-0.4055676192454676,0.0468683145287376
2000-01-01 00:00:22.341666666,22.34166666666667,-0.3478759784806413,0.1572530667946138
2000-01-01 00:00:22.361111111,22.36111111111111,-0.2671076814098844,0.4568688229448492
2000-01-01 00:00:22.380555555,22.380555555555556,1.1405683532518784,-0.8519789539219684
2000-01-01 00:00:22.400000000,22.4,2.802087607278877,-3.6273670108925695
2000-01-01 00:00:22.419444444,22.419444444444444,2.144402902559857,-2.949289246973616
2000-01-01 00:00:22.438888888,22.43888888888889,0.1251954757909347,-1.6246722197831016
2000-01-01 00:00:22.458333333,22.458333333333332,-1.5594004345419945,-0.7731327023034854
2000-01-01 00:00:22.477777777,22.477777777777774,-1.6055537471538557,-0.1896704403267113
2000-01-01 00:00:22.497222222,22.497222222222224,-1.1440206210352448,0.3307148203552764
2000-01-01 00:00:22.516666666,22.516666666666666,-0.8555624172111131,0.6303305765055118
2000-01-01 00:00:22.536111111,22.53611111111111,-0.8324857609051826,0.6145613261818151
2000-01-01 00:00:22.555555555,22.555555555555557,-0.8786390735170436,0.7880230797424778
2000-01-01 00:00:22.575000000,22.575,-0.9017157298229742,0.8353308307135675
2000-01-01 00:00:22.594444444,22.594444444444445,-0.8555624172111131,0.9299463326557472
2000-01-01 00:00:22.613888888,22.61388888888889,-0.763255791987391,0.9930233339505335
2000-01-01 00:00:22.633333333,22.633333333333333,-0.5786425415399467,0.9299463326557472
2000-01-01 00:00:22.652777777,22.65277777777778,-0.3824909629395371,0.8195615803898709
2000-01-01 00:00:22.672222222,22.672222222222224,-0.08249443096244,0.7091768281239947
2000-01-01 00:00:22.691666666,22.691666666666663,0.1828871165557611,0.583022825534422
2000-01-01 00:00:22.711111111,22.711111111111112,0.3444237106972749,0.4095610719737594
2000-01-01 00:00:22.730555555,22.73055555555555,0.3790386951561707,0.26763781906049
2000-01-01 00:00:22.750000000,22.75,0.4713453203798928,0.2203300680894002
2000-01-01 00:00:22.769444444,22.76944444444445,0.4136536796150665,0.0468683145287376
2000-01-01 00:00:22.788888888,22.788888888888888,0.4598069922269276,0.109945315823524
2000-01-01 00:00:22.808333333,22.808333333333337,0.3559620388502401,0.1572530667946138
2000-01-01 00:00:22.827777777,22.82777777777778,0.2405787573205874,0.2360993184130968
2000-01-01 00:00:22.847222222,22.84722222222222,-0.2324926969509885,0.26763781906049
2000-01-01 00:00:22.866666666,22.866666666666667,-0.3824909629395371,0.2518685687367934
2000-01-01 00:00:22.886111111,22.886111111111113,-0.4055676192454676,0.188791567442007
2000-01-01 00:00:22.905555555,22.905555555555555,-0.3824909629395371,0.188791567442007
2000-01-01 00:00:22.925000000,22.925,-0.3478759784806413,0.2045608177657036
2000-01-01 00:00:22.944444444,22.944444444444446,-0.3017226658687802,0.1730223171183104
2000-01-01 00:00:22.963888888,22.96388888888889,-0.2555693532569191,0.2203300680894002
2000-01-01 00:00:22.983333333,22.983333333333334,-0.4171059473984329,0.5987920758581186
2000-01-01 00:00:23.002777777,23.002777777777776,1.1059533687929828,-0.6627479500376092
2000-01-01 00:00:23.022222222,23.022222222222226,2.9059325606555646,-3.53275150895039
2000-01-01 00:00:23.041666666,23.041666666666668,2.790549279125912,-3.028135498592099
2000-01-01 00:00:23.061111111,23.06111111111111,0.8290334931218162,-1.7508262223726745
2000-01-01 00:00:23.080555555,23.080555555555556,-1.3747871840945505,-0.8362097035982718
2000-01-01 00:00:23.100000000,23.1,-1.5940154190008904,-0.2212089409741045
2000-01-01 00:00:23.119444444,23.119444444444444,-1.2132505899530366,0.3307148203552764
2000-01-01 00:00:23.138888888,23.13888888888889,-0.9017157298229742,0.740715328771388
2000-01-01 00:00:23.158333333,23.158333333333335,-0.8094091045992521,0.8668693313609608
2000-01-01 00:00:23.177777777,23.177777777777777,-0.8094091045992521,0.9930233339505335
2000-01-01 00:00:23.197222222,23.197222222222223,-0.8671007453640784,1.05610033524532
2000-01-01 00:00:23.216666666,23.21666666666667,-0.8671007453640784,1.134946586863803
2000-01-01 00:00:23.236111111,23.23611111111111,-0.8209474327522173,1.1191773365401063
2000-01-01 00:00:23.255555555,23.255555555555556,-0.6478725104577383,1.1191773365401063
2000-01-01 00:00:23.275000000,23.275,-0.3709526347865718,1.0718695855690166
2000-01-01 00:00:23.294444444,23.294444444444444,-0.08249443096244,0.9614848333031404
2000-01-01 00:00:23.313888888,23.31388888888889,0.1598104602498306,0.8353308307135675
2000-01-01 00:00:23.333333333,23.333333333333332,0.2751937417794833,0.5987920758581186
2000-01-01 00:00:23.352777777,23.352777777777774,0.3790386951561707,0.4568688229448492
2000-01-01 00:00:23.372222222,23.372222222222224,0.4251920077680318,0.4410995726211526
2000-01-01 00:00:23.391666666,23.391666666666666,0.4251920077680318,0.4095610719737594
2000-01-01 00:00:23.411111111,23.41111111111111,0.4944219766858234,0.3622533210026696
2000-01-01 00:00:23.430555555,23.430555555555557,0.3444237106972749,0.3937918216500628
2000-01-01 00:00:23.450000000,23.45,0.2059637728616916,0.4095610719737594
2000-01-01 00:00:23.469444444,23.469444444444445,-0.3017226658687802,0.425330322297456
2000-01-01 00:00:23.488888888,23.48888888888889,-0.4286442755513981,0.4568688229448492
2000-01-01 00:00:23.508333333,23.508333333333333,-0.4055676192454676,0.4568688229448492
2000-01-01 00:00:23.527777777,23.52777777777778,-0.3709526347865718,0.4410995726211526
2000-01-01 00:00:23.547222222,23.547222222222224,-0.3478759784806413,0.425330322297456
2000-01-01 00:00:23.566666666,23.566666666666663,-0.3132609940217454,0.3937918216500628
2000-01-01 00:00:23.586111111,23.586111111111112,-0.336337650327676,0.504176573915939
2000-01-01 00:00:23.605555555,23.60555555555555,0.2405787573205874,0.5357150745633322
2000-01-01 00:00:23.625000000,23.625,2.190556215171718,-1.9715957269044269
2000-01-01 00:00:23.644444444,23.64444444444445,3.309774046009349,-3.390828256037121
2000-01-01 00:00:23.663888888,23.663888888888888,1.5444098386056628,-2.018903477875517
2000-01-01 00:00:23.683333333,23.683333333333337,-1.1324822928822795,-0.9150559552167548
2000-01-01 00:00:23.702777777,23.70277777777778,-1.6747837160716472,-0.2685166919451943
2000-01-01 00:00:23.722222222,23.72222222222222,-1.328633871482689,0.4095610719737594
2000-01-01 00:00:23.741666666,23.741666666666667,-0.8786390735170436,0.9141770823320504
2000-01-01 00:00:23.761111111,23.761111111111113,-0.7401791356814604,1.0087925842742302
2000-01-01 00:00:23.780555555,23.780555555555555,-0.7978707764462868,1.0876388358927132
2000-01-01 00:00:23.800000000,23.8,-0.8671007453640784,1.134946586863803
2000-01-01 00:00:23.819444444,23.819444444444446,-0.9247923861289048,1.2295620888059826
2000-01-01 00:00:23.838888888,23.83888888888889,-0.8440240890581479,1.2768698397770724
2000-01-01 00:00:23.858333333,23.858333333333334,-0.6594108386107036,1.2768698397770724
2000-01-01 00:00:23.877777777,23.877777777777776,-0.3247993221747107,1.2137928384822858
2000-01-01 00:00:23.897222222,23.897222222222226,-0.1055710872683706,1.0876388358927132
2000-01-01 00:00:23.916666666,23.916666666666668,0.1367338039439,0.8826385816846574
2000-01-01 00:00:23.936111111,23.93611111111111,0.2982703980854138,0.7091768281239947
2000-01-01 00:00:23.955555555,23.955555555555556,0.3559620388502401,0.5199458242396356
2000-01-01 00:00:23.975000000,23.975,0.436730335920997,0.5199458242396356
2000-01-01 00:00:23.994444444,23.994444444444444,0.5059603048387886,0.5199458242396356
2000-01-01 00:00:24.013888888,24.01388888888889,0.4828836485328581,0.3780225713263662
2000-01-01 00:00:24.033333333,24.033333333333335,0.4251920077680318,0.3622533210026696
2000-01-01 00:00:24.052777777,24.052777777777777,0.3328853825443096,0.3780225713263662
2000-01-01 00:00:24.072222222,24.072222222222223,-0.0017261338916831,0.4726380732685458
2000-01-01 00:00:24.091666666,24.09166666666667,-0.2786460095628496,0.5199458242396356
2000-01-01 00:00:24.111111111,24.11111111111111,-0.3132609940217454,0.5199458242396356
2000-01-01 00:00:24.130555555,24.130555555555556,-0.3247993221747107,0.4726380732685458
2000-01-01 00:00:24.150000000,24.15,-0.3017226658687802,0.425330322297456
2000-01-01 00:00:24.169444444,24.169444444444444,-0.2786460095628496,0.3937918216500628
2000-01-01 00:00:24.188888888,24.18888888888889,-0.2440310251039538,0.3937918216500628
2000-01-01 00:00:24.208333333,24.208333333333332,-0.2209543687980233,0.5357150745633322
2000-01-01 00:00:24.227777777,24.227777777777774,0.1367338039439,0.6460998268292084
2000-01-01 00:00:24.247222222,24.247222222222224,1.8674830268886904,-1.26197946233808
2000-01-01 00:00:24.266666666,24.266666666666666,3.4828489683038284,-3.58005925992148
2000-01-01 00:00:24.286111111,24.28611111111111,2.1213262462539264,-2.444673236615325
2000-01-01 00:00:24.305555555,24.305555555555557,-0.3709526347865718,-1.1989024610432937
2000-01-01 00:00:24.325000000,24.325,-1.6401687316127511,-0.4262091951821602
2000-01-01 00:00:24.344444444,24.344444444444445,-1.409402168553446,0.2518685687367934
2000-01-01 00:00:24.363888888,24.36388888888889,-0.9940223550466964,0.8037923300661743
2000-01-01 00:00:24.383333333,24.383333333333333,-0.7286408075284951,0.9457155829794436
2000-01-01 00:00:24.402777777,24.40277777777778,-0.7863324482933215,1.0087925842742302
2000-01-01 00:00:24.422222222,24.422222222222224,-0.8209474327522173,1.1034080862164095
2000-01-01 00:00:24.441666666,24.441666666666663,-0.8094091045992521,1.2295620888059826
2000-01-01 00:00:24.461111111,24.461111111111112,-0.7517174638344257,1.3084083404244655
2000-01-01 00:00:24.480555555,24.48055555555555,-0.6478725104577383,1.2611005894533758
2000-01-01 00:00:24.500000000,24.5,-0.4747975881632592,1.166485087511196
2000-01-01 00:00:24.519444444,24.51944444444445,-0.2209543687980233,1.0876388358927132
2000-01-01 00:00:24.538888888,24.538888888888888,0.0328888505672126,0.977254083626837
2000-01-01 00:00:24.558333333,24.558333333333337,0.2982703980854138,0.8511000810372642
2000-01-01 00:00:24.577777777,24.57777777777778,0.4598069922269276,0.6934075778002982
2000-01-01 00:00:24.597222222,24.59722222222222,0.4713453203798928,0.5199458242396356
2000-01-01 00:00:24.616666666,24.616666666666667,0.5290369611447192,0.3937918216500628
2000-01-01 00:00:24.636111111,24.636111111111113,0.5059603048387886,0.3622533210026696
2000-01-01 00:00:24.655555555,24.655555555555555,0.4828836485328581,0.3307148203552764
2000-01-01 00:00:24.675000000,24.675,0.4828836485328581,0.3780225713263662
2000-01-01 00:00:24.694444444,24.694444444444446,0.436730335920997,0.3937918216500628
2000-01-01 00:00:24.713888888,24.71388888888889,0.2405787573205874,0.4568688229448492
2000-01-01 00:00:24.733333333,24.733333333333334,-0.1517243998802317,0.425330322297456
2000-01-01 00:00:24.752777777,24.752777777777776,-0.2671076814098844,0.4568688229448492
2000-01-01 00:00:24.772222222,24.772222222222226,-0.2555693532569191,0.4568688229448492
2000-01-01 00:00:24.791666666,24.791666666666668,-0.2324926969509885,0.4410995726211526
2000-01-01 00:00:24.811111111,24.81111111111111,-0.1632627280331969,0.3780225713263662
2000-01-01 00:00:24.830555555,24.830555555555556,-0.1517243998802317,0.3780225713263662
2000-01-01 00:00:24.850000000,24.85,-0.1055710872683706,0.3622533210026696
2000-01-01 00:00:24.869444444,24.869444444444444,-0.1748010561861622,0.7249460784476913
2000-01-01 00:00:24.888888888,24.88888888888889,1.555948166758628,-0.4104399448584637
2000-01-01 00:00:24.908333333,24.908333333333335,3.33285070231528,-3.185828001829065
2000-01-01 00:00:24.927777777,24.927777777777777,3.182852436326731,-2.9019814960025263
2000-01-01 00:00:24.947222222,24.947222222222223,0.7598035242040246,-1.5142874675172255
2000-01-01 00:00:24.966666666,24.96666666666667,-1.5132471219301336,-0.5839016984191262
2000-01-01 00:00:24.986111111,24.98611111111111,-1.5709387626949598,-0.0004394364423521
2000-01-01 00:00:25.005555555,25.005555555555556,-1.0747906521174533,0.5987920758581186
2000-01-01 00:00:25.025000000,25.025,-0.7171024793755298,0.9299463326557472
2000-01-01 00:00:25.044444444,25.044444444444444,-0.6709491667636688,0.9457155829794436
2000-01-01 00:00:25.063888888,25.06388888888889,-0.763255791987391,1.0403310849216234
2000-01-01 00:00:25.083333333,25.083333333333332,-0.8094091045992521,1.1191773365401063
2000-01-01 00:00:25.102777777,25.102777777777774,-0.8094091045992521,1.1507158371874997
2000-01-01 00:00:25.122222222,25.122222222222224,-0.6824874949166341,1.1507158371874997
2000-01-01 00:00:25.141666666,25.141666666666666,-0.4286442755513981,1.166485087511196
2000-01-01 00:00:25.161111111,25.16111111111111,-0.1286477435743011,1.0876388358927132
2000-01-01 00:00:25.180555555,25.180555555555557,0.1367338039439,0.9457155829794436
2000-01-01 00:00:25.200000000,25.2,0.3559620388502401,0.7249460784476913
2000-01-01 00:00:25.219444444,25.219444444444445,0.4482686640739623,0.583022825534422
2000-01-01 00:00:25.238888888,25.23888888888889,0.4251920077680318,0.4568688229448492
2000-01-01 00:00:25.258333333,25.258333333333333,0.5059603048387886,0.4726380732685458
2000-01-01 00:00:25.277777777,25.27777777777778,0.4828836485328581,0.425330322297456
2000-01-01 00:00:25.297222222,25.297222222222224,0.5174986329917539,0.425330322297456
2000-01-01 00:00:25.316666666,25.316666666666663,0.4136536796150665,0.4095610719737594
2000-01-01 00:00:25.336111111,25.336111111111112,0.3328853825443096,0.4568688229448492
2000-01-01 00:00:25.355555555,25.35555555555555,-0.0709561028094748,0.504176573915939
2000-01-01 00:00:25.375000000,25.375,-0.2209543687980233,0.5357150745633322
2000-01-01 00:00:25.394444444,25.39444444444445,-0.1978777124920927,0.4884073235922424
2000-01-01 00:00:25.413888888,25.413888888888888,-0.209416040645058,0.4568688229448492
2000-01-01 00:00:25.433333333,25.433333333333337,-0.2209543687980233,0.3937918216500628
2000-01-01 00:00:25.452777777,25.45277777777778,-0.209416040645058,0.3937918216500628
2000-01-01 00:00:25.472222222,25.47222222222222,-0.1171094154213358,0.4095610719737594
2000-01-01 00:00:25.491666666,25.491666666666667,-0.1632627280331969,0.7722538294187812
2000-01-01 00:00:25.511111111,25.511111111111113,1.3251816036993227,-0.0162086867660487
2000-01-01 00:00:25.530555555,25.530555555555555,2.802087607278877,-2.413134735967932
2000-01-01 00:00:25.550000000,25.55,3.205929092632662,-3.0754432495631887
2000-01-01 00:00:25.569444444,25.569444444444446,1.498256525993802,-1.8454417243148544
2000-01-01 00:00:25.588888888,25.58888888888889,-0.8440240890581479,-0.8519789539219684
2000-01-01 00:00:25.608333333,25.608333333333334,-1.5132471219301336,-0.1896704403267113
2000-01-01 00:00:25.627777777,25.627777777777776,-1.1440206210352448,0.4095610719737594
2000-01-01 00:00:25.647222222,25.647222222222226,-0.8094091045992521,0.8037923300661743
2000-01-01 00:00:25.666666666,25.666666666666668,-0.6594108386107036,0.8668693313609608
2000-01-01 00:00:25.686111111,25.68611111111111,-0.7055641512225647,0.9457155829794436
2000-01-01 00:00:25.705555555,25.705555555555556,-0.7401791356814604,1.0087925842742302
2000-01-01 00:00:25.725000000,25.725,-0.7055641512225647,1.0876388358927132
2000-01-01 00:00:25.744444444,25.744444444444444,-0.636334182304773,1.1980235881585892
2000-01-01 00:00:25.763888888,25.76388888888889,-0.5324892289280856,1.1980235881585892
2000-01-01 00:00:25.783333333,25.783333333333335,-0.3017226658687802,1.0876388358927132
2000-01-01 00:00:25.802777777,25.802777777777777,-0.08249443096244,0.977254083626837
2000-01-01 00:00:25.822222222,25.822222222222223,0.2175021010146569,0.8195615803898709
2000-01-01 00:00:25.841666666,25.84166666666667,0.4021153514621012,0.6934075778002982
2000-01-01 00:00:25.861111111,25.86111111111111,0.5059603048387886,0.5199458242396356
2000-01-01 00:00:25.880555555,25.880555555555556,0.4713453203798928,0.3937918216500628
2000-01-01 00:00:25.900000000,25.9,0.5174986329917539,0.3780225713263662
2000-01-01 00:00:25.919444444,25.919444444444444,0.4944219766858234,0.2991763197078832
2000-01-01 00:00:25.938888888,25.93888888888889,0.5174986329917539,0.3307148203552764
2000-01-01 00:00:25.958333333,25.958333333333332,0.436730335920997,0.3780225713263662
2000-01-01 00:00:25.977777777,25.977777777777774,0.2867320699324485,0.4568688229448492
2000-01-01 00:00:25.997222222,25.997222222222224,-0.1517243998802317,0.4568688229448492
2000-01-01 00:00:26.016666666,26.016666666666666,-0.2555693532569191,0.4410995726211526
2000-01-01 00:00:26.036111111,26.03611111111111,-0.2671076814098844,0.3937918216500628
2000-01-01 00:00:26.055555555,26.055555555555557,-0.2440310251039538,0.3937918216500628
2000-01-01 00:00:26.075000000,26.075,-0.1978777124920927,0.3937918216500628
2000-01-01 00:00:26.094444444,26.094444444444445,-0.1171094154213358,0.3622533210026696
2000-01-01 00:00:26.113888888,26.11388888888889,-0.1517243998802317,0.4726380732685458
2000-01-01 00:00:26.133333333,26.133333333333333,0.1251954757909347,0.5672535752107254
2000-01-01 00:00:26.152777777,26.15277777777778,1.7867147298179336,-1.4039027152513492
2000-01-01 00:00:26.172222222,26.172222222222224,3.1482374518678355,-3.406597506360818
2000-01-01 00:00:26.191666666,26.191666666666663,1.9482513239594472,-2.208134481759876
2000-01-01 00:00:26.211111111,26.211111111111112,-0.1286477435743011,-1.1358254597485071
2000-01-01 00:00:26.230555555,26.23055555555555,-1.4209404967064114,-0.4577476958295535
2000-01-01 00:00:26.250000000,26.25,-1.363248855941585,0.0941760654998274
2000-01-01 00:00:26.269444444,26.26944444444445,-0.9594073705878006,0.6145613261818151
2000-01-01 00:00:26.288888888,26.288888888888888,-0.6709491667636688,0.8511000810372642
2000-01-01 00:00:26.308333333,26.308333333333337,-0.6709491667636688,0.898407832008354
2000-01-01 00:00:26.327777777,26.32777777777778,-0.6940258230695994,0.9614848333031404
2000-01-01 00:00:26.347222222,26.34722222222222,-0.6940258230695994,1.05610033524532
2000-01-01 00:00:26.366666666,26.366666666666667,-0.7286408075284951,1.1034080862164095
2000-01-01 00:00:26.386111111,26.386111111111113,-0.6478725104577383,1.1034080862164095
2000-01-01 00:00:26.405555555,26.405555555555555,-0.4863359163162245,1.0876388358927132
2000-01-01 00:00:26.425000000,26.425,-0.2440310251039538,1.0245618345979268
2000-01-01 00:00:26.444444444,26.444444444444446,0.009812194261282,0.9457155829794436
2000-01-01 00:00:26.463888888,26.46388888888889,0.2521170854735527,0.7722538294187812
2000-01-01 00:00:26.483333333,26.483333333333334,0.3559620388502401,0.5357150745633322
2000-01-01 00:00:26.502777777,26.502777777777776,0.436730335920997,0.3622533210026696
2000-01-01 00:00:26.522222222,26.522222222222226,0.4021153514621012,0.3149455700315798
2000-01-01 00:00:26.541666666,26.541666666666668,0.4828836485328581,0.3780225713263662
2000-01-01 00:00:26.561111111,26.56111111111111,0.4598069922269276,0.3149455700315798
2000-01-01 00:00:26.580555555,26.580555555555556,0.4713453203798928,0.2518685687367934
2000-01-01 00:00:26.600000000,26.6,0.3790386951561707,0.2518685687367934
2000-01-01 00:00:26.619444444,26.619444444444444,0.263655413626518,0.3149455700315798
2000-01-01 00:00:26.638888888,26.63888888888889,-0.1632627280331969,0.3149455700315798
2000-01-01 00:00:26.658333333,26.658333333333335,-0.3017226658687802,0.3780225713263662
2000-01-01 00:00:26.677777777,26.677777777777777,-0.2671076814098844,0.3307148203552764
2000-01-01 00:00:26.697222222,26.697222222222223,-0.2555693532569191,0.2518685687367934
2000-01-01 00:00:26.716666666,26.71666666666667,-0.2440310251039538,0.2360993184130968
2000-01-01 00:00:26.736111111,26.73611111111111,-0.2324926969509885,0.188791567442007
2000-01-01 00:00:26.755555555,26.755555555555556,-0.1632627280331969,0.2203300680894002
2000-01-01 00:00:26.775000000,26.775,-0.2786460095628496,0.4568688229448492
2000-01-01 00:00:26.794444444,26.794444444444444,0.6559585708273372,0.1730223171183104
2000-01-01 00:00:26.813888888,26.81388888888889,2.317477824854336,-2.381596235320538
2000-01-01 00:00:26.833333333,26.833333333333332,3.2405440770915575,-3.58005925992148
2000-01-01 00:00:26.852777777,26.852777777777774,1.7982530579708988,-2.2869807333783587
2000-01-01 00:00:26.872222222,26.872222222222224,-0.5555658852340162,-1.1831332107195969
2000-01-01 00:00:26.891666666,26.891666666666666,-1.4670938093182724,-0.5839016984191262
2000-01-01 00:00:26.911111111,26.91111111111111,-1.3401721996356544,-0.0004394364423521
2000-01-01 00:00:26.930555555,26.930555555555557,-0.9247923861289048,0.4726380732685458
2000-01-01 00:00:26.950000000,26.95,-0.6594108386107036,0.661869077152905
2000-01-01 00:00:26.969444444,26.969444444444445,-0.6594108386107036,0.661869077152905
2000-01-01 00:00:26.988888888,26.98888888888889,-0.7171024793755298,0.7564845790950846
2000-01-01 00:00:27.008333333,27.008333333333333,-0.7171024793755298,0.8826385816846574
2000-01-01 00:00:27.027777777,27.02777777777778,-0.7171024793755298,0.8826385816846574
2000-01-01 00:00:27.047222222,27.047222222222224,-0.6132575259988424,0.9299463326557472
2000-01-01 00:00:27.066666666,27.066666666666663,-0.5324892289280856,0.9141770823320504
2000-01-01 00:00:27.086111111,27.086111111111112,-0.3247993221747107,0.8195615803898709
2000-01-01 00:00:27.105555555,27.10555555555555,-0.0709561028094748,0.740715328771388
2000-01-01 00:00:27.125000000,27.125,0.1598104602498306,0.6145613261818151
2000-01-01 00:00:27.144444444,27.14444444444445,0.3675003670032054,0.4726380732685458
