timestamp,elapsed_s,MLII,V1
2000-01-01 00:00:00.000000000,0.0,-0.1814002819270414,-1.057051936413922
2000-01-01 00:00:00.019444444,0.0194444444444444,-0.1814002819270414,-1.057051936413922
2000-01-01 00:00:00.038888888,0.0388888888888888,-0.0899287308830501,-1.057051936413922
2000-01-01 00:00:00.058333333,0.0583333333333333,-0.0137024383463906,-1.676478796310739
2000-01-01 00:00:00.077777777,0.0777777777777777,0.169240663741592,-1.676478796310739
2000-01-01 00:00:00.097222222,0.0972222222222222,0.2607122147855833,-2.3733340136946586
2000-01-01 00:00:00.116666666,0.1166666666666666,0.1082596297122644,-2.06362058374625
2000-01-01 00:00:00.136111111,0.1361111111111111,-0.105173989390382,-1.2893370088752285
2000-01-01 00:00:00.155555555,0.1555555555555555,-0.1509097649123777,-1.2893370088752285
2000-01-01 00:00:00.175000000,0.175,-0.2118907989417052,-1.9087638687720456
2000-01-01 00:00:00.194444444,0.1944444444444444,-0.1204192478977139,-1.986192226259148
2000-01-01 00:00:00.213888888,0.2138888888888889,0.2302216977709195,-2.295905656207556
2000-01-01 00:00:00.233333333,0.2333333333333333,3.3554996917739572,-4.7736130957948255
2000-01-01 00:00:00.252777777,0.2527777777777777,0.0015428201609412,-1.9087638687720456
2000-01-01 00:00:00.272222222,0.2722222222222222,-0.2271360574490371,-1.444193723849433
2000-01-01 00:00:00.291666666,0.2916666666666667,-0.379588642522356,-1.7539071537978412
2000-01-01 00:00:00.311111111,0.3111111111111111,-0.3948339010296879,-2.06362058374625
2000-01-01 00:00:00.330555555,0.3305555555555555,-0.4405696765516836,-2.4507623711817605
2000-01-01 00:00:00.350000000,0.35,-0.4558149350590155,-2.06362058374625
2000-01-01 00:00:00.369444444,0.3694444444444444,-0.3948339010296879,-1.3667653663623305
2000-01-01 00:00:00.388888888,0.3888888888888889,-0.3338528670003604,-1.599050438823637
2000-01-01 00:00:00.408333333,0.4083333333333333,-0.2728718329710328,-1.986192226259148
2000-01-01 00:00:00.427777777,0.4277777777777778,-0.1661550234197095,-2.218477298720454
2000-01-01 00:00:00.447222222,0.4472222222222222,-0.0746834723757182,-2.295905656207556
2000-01-01 00:00:00.466666666,0.4666666666666667,0.1387501467269282,-2.141048941233352
2000-01-01 00:00:00.486111111,0.4861111111111111,0.3674290243369065,-1.8313355112849432
2000-01-01 00:00:00.505555555,0.5055555555555555,0.5351268679175574,-1.9087638687720456
2000-01-01 00:00:00.525000000,0.525,0.5351268679175574,-2.141048941233352
2000-01-01 00:00:00.544444444,0.5444444444444445,0.2454669562782514,-2.218477298720454
2000-01-01 00:00:00.563888888,0.5638888888888889,0.0320333371756049,-2.4507623711817605
2000-01-01 00:00:00.583333333,0.5833333333333334,-0.1661550234197095,-2.06362058374625
2000-01-01 00:00:00.602777777,0.6027777777777777,-0.2118907989417052,-1.5216220813365349
2000-01-01 00:00:00.622222222,0.6222222222222222,-0.1661550234197095,-1.3667653663623305
2000-01-01 00:00:00.641666666,0.6416666666666667,-0.1356645064050458,-1.7539071537978412
2000-01-01 00:00:00.661111111,0.6611111111111111,-0.105173989390382,-2.218477298720454
2000-01-01 00:00:00.680555555,0.6805555555555556,-0.1814002819270414,-2.295905656207556
2000-01-01 00:00:00.700000000,0.7,-0.105173989390382,-1.8313355112849432
2000-01-01 00:00:00.719444444,0.7194444444444444,-0.1204192478977139,-1.2893370088752285
2000-01-01 00:00:00.738888888,0.7388888888888889,-0.0746834723757182,-1.2893370088752285
2000-01-01 00:00:00.758333333,0.7583333333333333,-0.0899287308830501,-1.9087638687720456
2000-01-01 00:00:00.777777777,0.7777777777777778,-0.105173989390382,-1.7539071537978412
2000-01-01 00:00:00.797222222,0.7972222222222223,-0.1356645064050458,-2.3733340136946586
2000-01-01 00:00:00.816666666,0.8166666666666667,-0.105173989390382,-1.986192226259148
2000-01-01 00:00:00.836111111,0.8361111111111111,-0.1509097649123777,-1.5216220813365349
2000-01-01 00:00:00.855555555,0.8555555555555556,-0.1509097649123777,-1.444193723849433
2000-01-01 00:00:00.875000000,0.875,-0.0594382138683863,-1.7539071537978412
2000-01-01 00:00:00.894444444,0.8944444444444445,-0.105173989390382,-1.7539071537978412
2000-01-01 00:00:00.913888888,0.9138888888888888,-0.0899287308830501,-2.06362058374625
2000-01-01 00:00:00.933333333,0.9333333333333332,-0.0289476968537225,-2.218477298720454
2000-01-01 00:00:00.952777777,0.9527777777777778,0.3369385073222428,-1.3667653663623305
2000-01-01 00:00:00.972222222,0.9722222222222222,0.2149764392635876,-1.5216220813365349
2000-01-01 00:00:00.991666666,0.9916666666666668,0.1082596297122644,-1.9087638687720456
2000-01-01 00:00:01.011111111,1.011111111111111,-0.1204192478977139,-1.986192226259148
2000-01-01 00:00:01.030555555,1.0305555555555557,-0.105173989390382,-2.295905656207556
2000-01-01 00:00:01.050000000,1.05,-0.1661550234197095,-2.3733340136946586
2000-01-01 00:00:01.069444444,1.0694444444444444,-0.2118907989417052,-1.986192226259148
2000-01-01 00:00:01.088888888,1.088888888888889,1.28214453477682,-1.444193723849433
2000-01-01 00:00:01.108333333,1.1083333333333334,1.9224453920847593,-4.0767578784109055
2000-01-01 00:00:01.127777777,1.1277777777777778,0.1082596297122644,-1.676478796310739
2000-01-01 00:00:01.147222222,1.147222222222222,-0.3643433840150241,-2.4507623711817605
2000-01-01 00:00:01.166666666,1.1666666666666667,-0.3948339010296879,-2.3733340136946586
2000-01-01 00:00:01.186111111,1.1861111111111111,-0.3186076084930285,-1.2119086513881263
2000-01-01 00:00:01.205555555,1.2055555555555555,-0.3338528670003604,-1.057051936413922
2000-01-01 00:00:01.225000000,1.225,-0.3033623499856966,-1.5216220813365349
2000-01-01 00:00:01.244444444,1.2444444444444445,-0.3033623499856966,-1.7539071537978412
2000-01-01 00:00:01.263888888,1.2638888888888888,-0.3033623499856966,-2.141048941233352
2000-01-01 00:00:01.283333333,1.2833333333333334,-0.2728718329710328,-2.06362058374625
2000-01-01 00:00:01.302777777,1.3027777777777778,-0.1509097649123777,-1.599050438823637
2000-01-01 00:00:01.322222222,1.3222222222222222,-0.0441929553610544,-1.2119086513881263
2000-01-01 00:00:01.341666666,1.3416666666666668,0.1997311807562558,-1.7539071537978412
2000-01-01 00:00:01.361111111,1.3611111111111112,0.4131647998589022,-1.8313355112849432
2000-01-01 00:00:01.380555555,1.3805555555555555,0.5198816094102254,-2.528190728668863
2000-01-01 00:00:01.400000000,1.4,0.4893910923955616,-2.605619086155965
2000-01-01 00:00:01.419444444,1.4194444444444445,0.2759574732929152,-1.7539071537978412
2000-01-01 00:00:01.438888888,1.4388888888888889,0.1539954052342601,-1.134480293901024
2000-01-01 00:00:01.458333333,1.4583333333333333,0.0320333371756049,-1.2893370088752285
2000-01-01 00:00:01.477777777,1.477777777777778,-0.0289476968537225,-1.3667653663623305
2000-01-01 00:00:01.497222222,1.4972222222222222,-0.0899287308830501,-1.986192226259148
2000-01-01 00:00:01.516666666,1.5166666666666666,-0.0441929553610544,-2.141048941233352
2000-01-01 00:00:01.536111111,1.5361111111111112,-0.0137024383463906,-1.444193723849433
2000-01-01 00:00:01.555555555,1.5555555555555556,0.0320333371756049,-0.8247668639526154
2000-01-01 00:00:01.575000000,1.575,0.0472785956829368,-1.134480293901024
2000-01-01 00:00:01.594444444,1.5944444444444446,0.0777691126976006,-1.2893370088752285
2000-01-01 00:00:01.613888888,1.613888888888889,0.016788078668273,-1.986192226259148
2000-01-01 00:00:01.633333333,1.6333333333333333,0.0625238541902687,-1.8313355112849432
2000-01-01 00:00:01.652777777,1.652777777777778,0.016788078668273,-1.134480293901024
2000-01-01 00:00:01.672222222,1.6722222222222225,0.0015428201609412,-0.7473385064655134
2000-01-01 00:00:01.691666666,1.6916666666666669,0.0320333371756049,-1.2119086513881263
2000-01-01 00:00:01.711111111,1.7111111111111112,0.0472785956829368,-1.5216220813365349
2000-01-01 00:00:01.730555555,1.7305555555555556,0.0472785956829368,-1.5216220813365349
2000-01-01 00:00:01.750000000,1.75,0.0015428201609412,-2.06362058374625
2000-01-01 00:00:01.769444444,1.7694444444444444,0.016788078668273,-1.676478796310739
2000-01-01 00:00:01.788888888,1.788888888888889,0.1997311807562558,-0.7473385064655134
2000-01-01 00:00:01.808333333,1.8083333333333331,0.1997311807562558,-0.7473385064655134
2000-01-01 00:00:01.827777777,1.8277777777777775,0.5656173849322211,-1.2893370088752285
2000-01-01 00:00:01.847222222,1.8472222222222223,0.306447990307579,-1.7539071537978412
2000-01-01 00:00:01.866666666,1.8666666666666667,0.1844859222489238,-2.141048941233352
2000-01-01 00:00:01.886111111,1.886111111111111,0.0015428201609412,-1.7539071537978412
2000-01-01 00:00:01.905555555,1.9055555555555557,-0.0137024383463906,-1.057051936413922
2000-01-01 00:00:01.925000000,1.925,-0.0289476968537225,-0.9796235789268196
2000-01-01 00:00:01.944444444,1.9444444444444444,-0.0746834723757182,-1.3667653663623305
2000-01-01 00:00:01.963888888,1.963888888888889,1.7699928070114406,-1.3667653663623305
2000-01-01 00:00:01.983333333,1.9833333333333336,2.3340673717827203,-3.999329520923803
2000-01-01 00:00:02.002777777,2.0027777777777778,0.1235048882195963,-1.676478796310739
2000-01-01 00:00:02.022222222,2.022222222222222,-0.242381315956369,-0.9021952214397176
2000-01-01 00:00:02.041666666,2.0416666666666665,-0.2576265744637009,-0.6699101489784112
2000-01-01 00:00:02.061111111,2.0611111111111113,-0.3186076084930285,-1.057051936413922
2000-01-01 00:00:02.080555555,2.0805555555555557,-0.3338528670003604,-1.057051936413922
2000-01-01 00:00:02.100000000,2.1,-0.3643433840150241,-1.444193723849433
2000-01-01 00:00:02.119444444,2.1194444444444445,-0.379588642522356,-1.444193723849433
2000-01-01 00:00:02.138888888,2.138888888888889,-0.3186076084930285,-0.9796235789268196
2000-01-01 00:00:02.158333333,2.158333333333333,-0.242381315956369,-0.3601967190300025
2000-01-01 00:00:02.177777777,2.177777777777778,-0.1814002819270414,-0.5150534340042069
2000-01-01 00:00:02.197222222,2.1972222222222224,-0.0441929553610544,-0.9021952214397176
2000-01-01 00:00:02.216666666,2.216666666666667,0.1235048882195963,-1.444193723849433
2000-01-01 00:00:02.236111111,2.236111111111111,0.3521837658295746,-1.444193723849433
2000-01-01 00:00:02.255555555,2.2555555555555555,0.4589005753808979,-0.9796235789268196
2000-01-01 00:00:02.275000000,2.275,0.5046363509028936,-0.7473385064655134
2000-01-01 00:00:02.294444444,2.2944444444444443,0.2912027318002471,-0.5924817914913091
2000-01-01 00:00:02.313888888,2.313888888888889,0.0472785956829368,-0.9796235789268196
2000-01-01 00:00:02.333333333,2.3333333333333335,-0.1204192478977139,-0.9796235789268196
2000-01-01 00:00:02.352777777,2.352777777777778,-0.2271360574490371,-1.057051936413922
2000-01-01 00:00:02.372222222,2.3722222222222222,-0.1814002819270414,-0.5150534340042069
2000-01-01 00:00:02.391666666,2.3916666666666666,-0.1509097649123777,-0.0504832890815939
2000-01-01 00:00:02.411111111,2.411111111111111,-0.1814002819270414,-0.2053400040557982
2000-01-01 00:00:02.430555555,2.430555555555556,-0.1356645064050458,-0.7473385064655134
2000-01-01 00:00:02.450000000,2.45,-0.2118907989417052,-0.8247668639526154
2000-01-01 00:00:02.469444444,2.469444444444445,-0.1661550234197095,-0.9021952214397176
2000-01-01 00:00:02.488888888,2.488888888888889,-0.2118907989417052,-0.6699101489784112
2000-01-01 00:00:02.508333333,2.5083333333333333,-0.1356645064050458,-0.1279116465686961
2000-01-01 00:00:02.527777777,2.5277777777777777,-0.1814002819270414,0.1818017833797124
2000-01-01 00:00:02.547222222,2.547222222222222,-0.2271360574490371,-0.2827683615429004
2000-01-01 00:00:02.566666666,2.566666666666667,-0.2118907989417052,-0.5150534340042069
2000-01-01 00:00:02.586111111,2.5861111111111112,-0.2881170914783647,-0.7473385064655134
2000-01-01 00:00:02.605555555,2.6055555555555556,-0.242381315956369,-0.6699101489784112
2000-01-01 00:00:02.625000000,2.625,-0.1814002819270414,-0.2053400040557982
2000-01-01 00:00:02.644444444,2.6444444444444444,-0.1966455404343733,0.1818017833797124
2000-01-01 00:00:02.663888888,2.6638888888888888,-0.242381315956369,-0.2053400040557982
2000-01-01 00:00:02.683333333,2.6833333333333336,-0.1356645064050458,-0.2827683615429004
2000-01-01 00:00:02.702777777,2.702777777777778,-0.0746834723757182,-0.5924817914913091
2000-01-01 00:00:02.722222222,2.7222222222222223,0.1844859222489238,-0.3601967190300025
2000-01-01 00:00:02.741666666,2.7416666666666667,0.0777691126976006,-0.2827683615429004
2000-01-01 00:00:02.761111111,2.761111111111111,-0.1204192478977139,0.1818017833797124
2000-01-01 00:00:02.780555555,2.780555555555555,-0.3490981255076922,-0.2053400040557982
2000-01-01 00:00:02.800000000,2.8,-0.4100791595370198,-0.3601967190300025
2000-01-01 00:00:02.819444444,2.8194444444444446,-0.379588642522356,-0.2827683615429004
2000-01-01 00:00:02.838888888,2.838888888888889,-0.516795969088343,-0.2827683615429004
2000-01-01 00:00:02.858333333,2.8583333333333334,2.273086337753393,-0.2827683615429004
2000-01-01 00:00:02.877777777,2.8777777777777778,1.4498423783574708,-1.8313355112849432
2000-01-01 00:00:02.897222222,2.897222222222222,-0.1966455404343733,0.0269450684055081
2000-01-01 00:00:02.916666666,2.9166666666666665,-0.4863054520736792,0.0269450684055081
2000-01-01 00:00:02.936111111,2.9361111111111113,-0.5777770031176707,0.1043734258926103
2000-01-01 00:00:02.955555555,2.9555555555555557,-0.5930222616250025,-0.5924817914913091
2000-01-01 00:00:02.975000000,2.975,-0.5777770031176707,-0.6699101489784112
2000-01-01 00:00:02.994444444,2.9944444444444445,-0.5777770031176707,-0.0504832890815939
2000-01-01 00:00:03.013888888,3.013888888888889,-0.6082675201323344,0.3366584983539167
2000-01-01 00:00:03.033333333,3.033333333333333,-0.5625317446103387,0.1043734258926103
2000-01-01 00:00:03.052777777,3.052777777777778,-0.5625317446103387,-0.1279116465686961
2000-01-01 00:00:03.072222222,3.0722222222222224,-0.4558149350590155,-0.2053400040557982
2000-01-01 00:00:03.091666666,3.091666666666667,-0.3490981255076922,-0.5924817914913091
2000-01-01 00:00:03.111111111,3.111111111111111,-0.2728718329710328,-0.4376250765171047
2000-01-01 00:00:03.130555555,3.1305555555555555,0.016788078668273,-0.2053400040557982
2000-01-01 00:00:03.150000000,3.15,0.1387501467269282,-0.0504832890815939
2000-01-01 00:00:03.169444444,3.1694444444444443,0.306447990307579,-0.4376250765171047
2000-01-01 00:00:03.188888888,3.188888888888889,0.2912027318002471,-0.5924817914913091
2000-01-01 00:00:03.208333333,3.2083333333333335,0.0472785956829368,-0.9796235789268196
2000-01-01 00:00:03.227777777,3.227777777777778,-0.2118907989417052,-0.7473385064655134
2000-01-01 00:00:03.247222222,3.2472222222222222,-0.3186076084930285,-0.1279116465686961
2000-01-01 00:00:03.266666666,3.2666666666666666,-0.4100791595370198,0.0269450684055081
2000-01-01 00:00:03.286111111,3.286111111111111,-0.3948339010296879,-0.2827683615429004
2000-01-01 00:00:03.305555555,3.305555555555556,-0.3490981255076922,-0.2053400040557982
2000-01-01 00:00:03.325000000,3.325,-0.4405696765516836,-0.6699101489784112
2000-01-01 00:00:03.344444444,3.344444444444445,-0.3948339010296879,-0.9021952214397176
2000-01-01 00:00:03.363888888,3.363888888888889,-0.3948339010296879,-0.5150534340042069
2000-01-01 00:00:03.383333333,3.3833333333333333,-0.3948339010296879,-0.0504832890815939
2000-01-01 00:00:03.402777777,3.4027777777777777,-0.3033623499856966,-0.2053400040557982
2000-01-01 00:00:03.422222222,3.4222222222222225,-0.3490981255076922,-0.5924817914913091
2000-01-01 00:00:03.441666666,3.441666666666667,-0.3338528670003604,-0.8247668639526154
2000-01-01 00:00:03.461111111,3.4611111111111112,-0.4100791595370198,-0.9796235789268196
2000-01-01 00:00:03.480555555,3.4805555555555556,-0.4100791595370198,-0.7473385064655134
2000-01-01 00:00:03.500000000,3.5,-0.4405696765516836,-0.1279116465686961
2000-01-01 00:00:03.519444444,3.5194444444444444,-0.3643433840150241,-0.2827683615429004
2000-01-01 00:00:03.538888888,3.5388888888888888,-0.3033623499856966,-0.5150534340042069
2000-01-01 00:00:03.558333333,3.5583333333333336,-0.3643433840150241,-0.5150534340042069
2000-01-01 00:00:03.577777777,3.577777777777778,-0.3643433840150241,-1.057051936413922
2000-01-01 00:00:03.597222222,3.5972222222222223,-0.379588642522356,-0.9796235789268196
2000-01-01 00:00:03.616666666,3.6166666666666663,-0.2728718329710328,-0.2827683615429004
2000-01-01 00:00:03.636111111,3.636111111111111,-0.1509097649123777,-0.2053400040557982
2000-01-01 00:00:03.655555555,3.655555555555555,0.1844859222489238,-0.5150534340042069
2000-01-01 00:00:03.675000000,3.675,0.0320333371756049,-0.5924817914913091
2000-01-01 00:00:03.694444444,3.6944444444444446,-0.2118907989417052,-1.2893370088752285
2000-01-01 00:00:03.713888888,3.713888888888889,-0.4100791595370198,-1.3667653663623305
2000-01-01 00:00:03.733333333,3.7333333333333334,-0.4558149350590155,-0.9021952214397176
2000-01-01 00:00:03.752777777,3.7527777777777778,-0.4405696765516836,-0.5150534340042069
2000-01-01 00:00:03.772222222,3.772222222222222,-0.5625317446103387,-0.7473385064655134
2000-01-01 00:00:03.791666666,3.7916666666666665,2.1816147867094013,-0.6699101489784112
2000-01-01 00:00:03.811111111,3.8111111111111113,1.4041066028354752,-3.0701892310785777
2000-01-01 00:00:03.830555555,3.830555555555556,-0.3338528670003604,-1.3667653663623305
2000-01-01 00:00:03.850000000,3.85,-0.6082675201323344,-1.2893370088752285
2000-01-01 00:00:03.869444444,3.869444444444445,-0.65400329565433,-0.5924817914913091
2000-01-01 00:00:03.888888888,3.888888888888889,-0.6235127786396663,-0.7473385064655134
2000-01-01 00:00:03.908333333,3.908333333333333,-0.6235127786396663,-0.8247668639526154
2000-01-01 00:00:03.927777777,3.927777777777778,-0.6235127786396663,-1.2893370088752285
2000-01-01 00:00:03.947222222,3.9472222222222224,-0.6235127786396663,-1.5216220813365349
2000-01-01 00:00:03.966666666,3.966666666666667,-0.5625317446103387,-1.2119086513881263
2000-01-01 00:00:03.986111111,3.986111111111111,-0.5015507105810112,-0.8247668639526154
2000-01-01 00:00:04.005555555,4.0055555555555555,-0.4100791595370198,-0.5924817914913091
2000-01-01 00:00:04.025000000,4.025,-0.2881170914783647,-1.057051936413922
2000-01-01 00:00:04.044444444,4.044444444444444,-0.2118907989417052,-1.444193723849433
2000-01-01 00:00:04.063888888,4.063888888888889,0.016788078668273,-1.8313355112849432
2000-01-01 00:00:04.083333333,4.083333333333333,0.1539954052342601,-1.8313355112849432
2000-01-01 00:00:04.102777777,4.102777777777778,0.3216932488149109,-1.444193723849433
2000-01-01 00:00:04.122222222,4.122222222222223,0.3674290243369065,-0.9021952214397176
2000-01-01 00:00:04.141666666,4.141666666666667,0.169240663741592,-0.8247668639526154
2000-01-01 00:00:04.161111111,4.161111111111111,-0.0594382138683863,-1.444193723849433
2000-01-01 00:00:04.180555555,4.180555555555555,-0.1509097649123777,-1.444193723849433
2000-01-01 00:00:04.200000000,4.2,-0.242381315956369,-1.676478796310739
2000-01-01 00:00:04.219444444,4.219444444444444,-0.2576265744637009,-1.3667653663623305
2000-01-01 00:00:04.238888888,4.238888888888889,-0.1356645064050458,-0.9021952214397176
2000-01-01 00:00:04.258333333,4.258333333333334,-0.1509097649123777,-0.5150534340042069
2000-01-01 00:00:04.277777777,4.277777777777778,-0.1661550234197095,-0.9796235789268196
2000-01-01 00:00:04.297222222,4.2972222222222225,-0.1356645064050458,-1.2119086513881263
2000-01-01 00:00:04.316666666,4.316666666666666,-0.1509097649123777,-1.5216220813365349
2000-01-01 00:00:04.336111111,4.336111111111111,-0.105173989390382,-1.599050438823637
2000-01-01 00:00:04.355555555,4.355555555555556,-0.0746834723757182,-1.3667653663623305
2000-01-01 00:00:04.375000000,4.375,-0.0746834723757182,-0.9021952214397176
2000-01-01 00:00:04.394444444,4.394444444444445,-0.1356645064050458,-0.7473385064655134
2000-01-01 00:00:04.413888888,4.413888888888889,-0.1356645064050458,-1.2119086513881263
2000-01-01 00:00:04.433333333,4.433333333333334,-0.1509097649123777,-1.057051936413922
2000-01-01 00:00:04.452777777,4.4527777777777775,-0.0899287308830501,-1.444193723849433
2000-01-01 00:00:04.472222222,4.472222222222222,-0.0746834723757182,-1.3667653663623305
2000-01-01 00:00:04.491666666,4.491666666666667,-0.0746834723757182,-0.9796235789268196
2000-01-01 00:00:04.511111111,4.511111111111111,-0.105173989390382,-0.9796235789268196
2000-01-01 00:00:04.530555555,4.530555555555556,-0.0899287308830501,-1.057051936413922
2000-01-01 00:00:04.550000000,4.55,-0.1356645064050458,-1.134480293901024
2000-01-01 00:00:04.569444444,4.569444444444445,0.0015428201609412,-0.8247668639526154
2000-01-01 00:00:04.588888888,4.588888888888889,0.1997311807562558,-1.2119086513881263
2000-01-01 00:00:04.608333333,4.608333333333333,0.4741458338882298,-0.9796235789268196
2000-01-01 00:00:04.627777777,4.627777777777778,0.2149764392635876,-0.9796235789268196
2000-01-01 00:00:04.647222222,4.647222222222222,0.0777691126976006,-0.8247668639526154
2000-01-01 00:00:04.666666666,4.666666666666667,-0.2118907989417052,-1.057051936413922
2000-01-01 00:00:04.686111111,4.686111111111111,-0.2271360574490371,-0.9021952214397176
2000-01-01 00:00:04.705555555,4.705555555555556,-0.2271360574490371,-1.2119086513881263
2000-01-01 00:00:04.725000000,4.725,-0.3643433840150241,-1.057051936413922
2000-01-01 00:00:04.744444444,4.7444444444444445,1.7090117729821128,-0.9796235789268196
2000-01-01 00:00:04.763888888,4.763888888888889,1.6785212559674492,-2.9153325161043737
2000-01-01 00:00:04.783333333,4.783333333333333,-0.2576265744637009,-0.4376250765171047
2000-01-01 00:00:04.802777777,4.802777777777778,-0.5625317446103387,-0.9021952214397176
2000-01-01 00:00:04.822222222,4.822222222222222,-0.6235127786396663,-0.9796235789268196
2000-01-01 00:00:04.841666666,4.841666666666667,-0.6082675201323344,-1.057051936413922
2000-01-01 00:00:04.861111111,4.861111111111112,-0.6235127786396663,-1.3667653663623305
2000-01-01 00:00:04.880555555,4.8805555555555555,-0.7149843296836577,-0.7473385064655134
2000-01-01 00:00:04.900000000,4.9,-0.7607201052056533,-0.4376250765171047
2000-01-01 00:00:04.919444444,4.919444444444444,-0.6844938126689939,-0.3601967190300025
2000-01-01 00:00:04.938888888,4.938888888888889,-0.65400329565433,-0.2827683615429004
2000-01-01 00:00:04.958333333,4.958333333333333,-0.5930222616250025,-0.8247668639526154
2000-01-01 00:00:04.977777777,4.977777777777778,-0.6387580371469982,-1.2119086513881263
2000-01-01 00:00:04.997222222,4.997222222222223,-0.5472864861030068,-1.444193723849433
2000-01-01 00:00:05.016666666,5.016666666666667,-0.379588642522356,-0.7473385064655134
2000-01-01 00:00:05.036111111,5.036111111111111,-0.2118907989417052,-0.4376250765171047
2000-01-01 00:00:05.055555555,5.055555555555555,-0.0289476968537225,-0.7473385064655134
2000-01-01 00:00:05.075000000,5.075,0.0625238541902687,-0.9021952214397176
2000-01-01 00:00:05.094444444,5.094444444444444,-0.105173989390382,-1.5216220813365349
2000-01-01 00:00:05.113888888,5.113888888888889,-0.242381315956369,-1.3667653663623305
2000-01-01 00:00:05.133333333,5.133333333333334,-0.4863054520736792,-0.5150534340042069
2000-01-01 00:00:05.152777777,5.152777777777778,-0.4863054520736792,-0.0504832890815939
2000-01-01 00:00:05.172222222,5.1722222222222225,-0.4710601935663474,-0.1279116465686961
2000-01-01 00:00:05.191666666,5.191666666666666,-0.6235127786396663,-0.2053400040557982
2000-01-01 00:00:05.211111111,5.211111111111111,-0.5472864861030068,-0.7473385064655134
2000-01-01 00:00:05.230555555,5.230555555555556,-0.6082675201323344,-1.2119086513881263
2000-01-01 00:00:05.250000000,5.25,-0.5625317446103387,-0.5150534340042069
2000-01-01 00:00:05.269444444,5.269444444444445,-0.516795969088343,0.1818017833797124
2000-01-01 00:00:05.288888888,5.288888888888889,-0.4405696765516836,0.0269450684055081
2000-01-01 00:00:05.308333333,5.308333333333334,-0.532041227595675,-0.2053400040557982
2000-01-01 00:00:05.327777777,5.3277777777777775,-0.4863054520736792,-0.6699101489784112
2000-01-01 00:00:05.347222222,5.347222222222222,-0.4863054520736792,-0.6699101489784112
2000-01-01 00:00:05.366666666,5.366666666666667,-0.4863054520736792,-0.2827683615429004
2000-01-01 00:00:05.386111111,5.386111111111111,-0.5930222616250025,0.4140868558410189
2000-01-01 00:00:05.405555555,5.405555555555556,-0.4863054520736792,0.0269450684055081
2000-01-01 00:00:05.425000000,5.425,-0.5777770031176707,-0.3601967190300025
2000-01-01 00:00:05.444444444,5.444444444444445,-0.5625317446103387,-0.4376250765171047
2000-01-01 00:00:05.463888888,5.463888888888889,-0.532041227595675,-0.7473385064655134
2000-01-01 00:00:05.483333333,5.483333333333333,-0.4253244180443517,-0.2827683615429004
2000-01-01 00:00:05.502777777,5.502777777777778,-0.242381315956369,0.3366584983539167
2000-01-01 00:00:05.522222222,5.522222222222222,-0.1661550234197095,0.1043734258926103
2000-01-01 00:00:05.541666666,5.541666666666667,-0.3490981255076922,-0.2053400040557982
2000-01-01 00:00:05.561111111,5.561111111111111,-0.5625317446103387,0.0269450684055081
2000-01-01 00:00:05.580555555,5.580555555555556,-0.5777770031176707,-0.5924817914913091
2000-01-01 00:00:05.600000000,5.6,-0.7607201052056533,-0.5924817914913091
2000-01-01 00:00:05.619444444,5.6194444444444445,-0.7912106222203171,0.1043734258926103
2000-01-01 00:00:05.638888888,5.638888888888889,-0.0746834723757182,0.5689435708152232
2000-01-01 00:00:05.658333333,5.658333333333333,3.46221650132528,-1.3667653663623305
2000-01-01 00:00:05.677777777,5.677777777777778,-0.5472864861030068,0.1043734258926103
2000-01-01 00:00:05.697222222,5.697222222222222,-0.8521916562496447,-0.6699101489784112
2000-01-01 00:00:05.716666666,5.716666666666667,-0.9131726902789722,-0.5150534340042069
2000-01-01 00:00:05.736111111,5.736111111111112,-0.8674369147569765,0.0269450684055081
2000-01-01 00:00:05.755555555,5.7555555555555555,-0.8826821732643084,0.4140868558410189
2000-01-01 00:00:05.775000000,5.775,-0.8369463977423127,-0.0504832890815939
2000-01-01 00:00:05.794444444,5.794444444444444,-0.8217011392349809,-0.2053400040557982
2000-01-01 00:00:05.813888888,5.813888888888889,-0.7759653637129852,-0.8247668639526154
2000-01-01 00:00:05.833333333,5.833333333333333,-0.8217011392349809,-0.8247668639526154
2000-01-01 00:00:05.852777777,5.852777777777778,-0.7149843296836577,-0.0504832890815939
2000-01-01 00:00:05.872222222,5.872222222222223,-0.5777770031176707,0.3366584983539167
2000-01-01 00:00:05.891666666,5.891666666666667,-0.4710601935663474,-0.0504832890815939
2000-01-01 00:00:05.911111111,5.911111111111111,-0.3338528670003604,-0.4376250765171047
2000-01-01 00:00:05.930555555,5.930555555555555,-0.1814002819270414,-1.2119086513881263
2000-01-01 00:00:05.950000000,5.95,-0.0899287308830501,-1.2119086513881263
2000-01-01 00:00:05.969444444,5.969444444444444,-0.0899287308830501,-0.7473385064655134
2000-01-01 00:00:05.988888888,5.988888888888889,-0.2576265744637009,0.1818017833797124
2000-01-01 00:00:06.008333333,6.008333333333334,-0.3948339010296879,0.0269450684055081
2000-01-01 00:00:06.027777777,6.027777777777778,-0.516795969088343,-0.6699101489784112
2000-01-01 00:00:06.047222222,6.0472222222222225,-0.5015507105810112,-0.8247668639526154
2000-01-01 00:00:06.066666666,6.066666666666666,-0.5472864861030068,-0.6699101489784112
2000-01-01 00:00:06.086111111,6.086111111111111,-0.516795969088343,-0.3601967190300025
2000-01-01 00:00:06.105555555,6.105555555555556,-0.4253244180443517,-0.1279116465686961
2000-01-01 00:00:06.125000000,6.125,-0.3490981255076922,-0.0504832890815939
2000-01-01 00:00:06.144444444,6.144444444444445,-0.3948339010296879,-0.4376250765171047
2000-01-01 00:00:06.163888888,6.163888888888889,-0.4253244180443517,-0.9021952214397176
2000-01-01 00:00:06.183333333,6.183333333333334,-0.4710601935663474,-1.134480293901024
2000-01-01 00:00:06.202777777,6.2027777777777775,-0.3186076084930285,-0.5924817914913091
2000-01-01 00:00:06.222222222,6.222222222222222,-0.3186076084930285,0.1043734258926103
2000-01-01 00:00:06.241666666,6.241666666666667,-0.4558149350590155,-0.4376250765171047
2000-01-01 00:00:06.261111111,6.261111111111111,-0.3186076084930285,-0.7473385064655134
2000-01-01 00:00:06.280555555,6.280555555555556,-0.3033623499856966,-0.8247668639526154
2000-01-01 00:00:06.300000000,6.3,-0.2118907989417052,-1.2119086513881263
2000-01-01 00:00:06.319444444,6.319444444444445,-0.2576265744637009,-0.4376250765171047
2000-01-01 00:00:06.338888888,6.338888888888889,-0.1661550234197095,0.2592301408668146
2000-01-01 00:00:06.358333333,6.358333333333333,-0.0746834723757182,-0.2053400040557982
2000-01-01 00:00:06.377777777,6.377777777777778,0.2912027318002471,-0.3601967190300025
2000-01-01 00:00:06.397222222,6.397222222222222,0.169240663741592,-1.134480293901024
2000-01-01 00:00:06.416666666,6.416666666666667,0.1082596297122644,-1.057051936413922
2000-01-01 00:00:06.436111111,6.436111111111111,0.016788078668273,-0.2827683615429004
2000-01-01 00:00:06.455555555,6.455555555555556,-0.2118907989417052,-0.2827683615429004
2000-01-01 00:00:06.475000000,6.4750000000000005,-0.2576265744637009,-0.5150534340042069
2000-01-01 00:00:06.494444444,6.4944444444444445,-0.3033623499856966,-0.8247668639526154
2000-01-01 00:00:06.513888888,6.513888888888889,1.8462190995481,-0.9796235789268196
2000-01-01 00:00:06.533333333,6.533333333333333,2.0596527186507463,-2.141048941233352
2000-01-01 00:00:06.552777777,6.552777777777778,0.1844859222489238,-0.2827683615429004
2000-01-01 00:00:06.572222222,6.572222222222222,-0.3338528670003604,-0.1279116465686961
2000-01-01 00:00:06.591666666,6.591666666666667,-0.3643433840150241,-0.3601967190300025
2000-01-01 00:00:06.611111111,6.611111111111112,-0.4558149350590155,-0.5150534340042069
2000-01-01 00:00:06.630555555,6.6305555555555555,-0.3948339010296879,-1.2119086513881263
2000-01-01 00:00:06.650000000,6.65,-0.4100791595370198,-0.9796235789268196
2000-01-01 00:00:06.669444444,6.669444444444444,-0.3490981255076922,-0.4376250765171047
2000-01-01 00:00:06.688888888,6.688888888888889,-0.3186076084930285,-0.0504832890815939
2000-01-01 00:00:06.708333333,6.708333333333333,-0.3033623499856966,-0.6699101489784112
2000-01-01 00:00:06.727777777,6.727777777777778,-0.2576265744637009,-0.9021952214397176
2000-01-01 00:00:06.747222222,6.747222222222223,-0.1204192478977139,-1.3667653663623305
2000-01-01 00:00:06.766666666,6.766666666666667,0.0777691126976006,-1.134480293901024
2000-01-01 00:00:06.786111111,6.786111111111111,0.3979195413515703,-0.4376250765171047
2000-01-01 00:00:06.805555555,6.805555555555555,0.5503721264248893,-0.5924817914913091
2000-01-01 00:00:06.825000000,6.825,0.5961079019468849,-0.9021952214397176
2000-01-01 00:00:06.844444444,6.844444444444445,0.4284100583662341,-1.134480293901024
2000-01-01 00:00:06.863888888,6.863888888888889,0.1235048882195963,-1.3667653663623305
2000-01-01 00:00:06.883333333,6.883333333333334,-0.1204192478977139,-0.9796235789268196
2000-01-01 00:00:06.902777777,6.902777777777778,-0.105173989390382,-0.5150534340042069
2000-01-01 00:00:06.922222222,6.9222222222222225,-0.1356645064050458,-0.5150534340042069
2000-01-01 00:00:06.941666666,6.941666666666666,-0.1204192478977139,-0.7473385064655134
2000-01-01 00:00:06.961111111,6.961111111111111,-0.105173989390382,-0.7473385064655134
2000-01-01 00:00:06.980555555,6.980555555555556,-0.0594382138683863,-1.134480293901024
2000-01-01 00:00:07.000000000,7.0,-0.0746834723757182,-1.5216220813365349
2000-01-01 00:00:07.019444444,7.019444444444445,-0.0746834723757182,-0.8247668639526154
2000-01-01 00:00:07.038888888,7.038888888888889,0.0320333371756049,-0.2053400040557982
2000-01-01 00:00:07.058333333,7.058333333333334,0.016788078668273,-0.5924817914913091
2000-01-01 00:00:07.077777777,7.0777777777777775,-0.0441929553610544,-1.3667653663623305
2000-01-01 00:00:07.097222222,7.097222222222222,-0.0289476968537225,-1.3667653663623305
2000-01-01 00:00:07.116666666,7.116666666666667,-0.0441929553610544,-1.2119086513881263
2000-01-01 00:00:07.136111111,7.136111111111111,-0.0137024383463906,-0.5924817914913091
2000-01-01 00:00:07.155555555,7.155555555555556,-0.0289476968537225,-0.2827683615429004
2000-01-01 00:00:07.175000000,7.175,0.0015428201609412,-0.8247668639526154
2000-01-01 00:00:07.194444444,7.194444444444445,0.0015428201609412,-0.7473385064655134
2000-01-01 00:00:07.213888888,7.213888888888889,0.0472785956829368,-1.3667653663623305
2000-01-01 00:00:07.233333333,7.233333333333333,0.0472785956829368,-1.676478796310739
2000-01-01 00:00:07.252777777,7.252777777777778,0.3979195413515703,-0.6699101489784112
2000-01-01 00:00:07.272222222,7.272222222222222,0.2454669562782514,-0.5924817914913091
2000-01-01 00:00:07.291666666,7.291666666666667,0.169240663741592,-0.8247668639526154
2000-01-01 00:00:07.311111111,7.311111111111111,-0.1356645064050458,-0.9796235789268196
2000-01-01 00:00:07.330555555,7.330555555555556,-0.0899287308830501,-1.599050438823637
2000-01-01 00:00:07.350000000,7.35,-0.1966455404343733,-1.676478796310739
2000-01-01 00:00:07.369444444,7.3694444444444445,-0.2118907989417052,-0.9021952214397176
2000-01-01 00:00:07.388888888,7.388888888888889,4.148253134155215,-0.5150534340042069
2000-01-01 00:00:07.408333333,7.408333333333333,0.8095415210495314,-1.057051936413922
2000-01-01 00:00:07.427777777,7.427777777777778,0.1539954052342601,-1.057051936413922
2000-01-01 00:00:07.447222222,7.447222222222222,-0.0899287308830501,-1.676478796310739
2000-01-01 00:00:07.466666666,7.466666666666667,-0.6387580371469982,-1.599050438823637
2000-01-01 00:00:07.486111111,7.486111111111112,-0.4863054520736792,-0.9796235789268196
2000-01-01 00:00:07.505555555,7.5055555555555555,-0.3948339010296879,-0.5924817914913091
2000-01-01 00:00:07.525000000,7.525,-0.379588642522356,-0.5924817914913091
2000-01-01 00:00:07.544444444,7.544444444444444,-0.4100791595370198,-1.057051936413922
2000-01-01 00:00:07.563888888,7.563888888888889,-0.4405696765516836,-1.3667653663623305
2000-01-01 00:00:07.583333333,7.583333333333333,-0.4863054520736792,-1.444193723849433
2000-01-01 00:00:07.602777777,7.602777777777778,-0.379588642522356,-0.9796235789268196
2000-01-01 00:00:07.622222222,7.622222222222223,-0.242381315956369,-0.4376250765171047
2000-01-01 00:00:07.641666666,7.641666666666667,-0.1204192478977139,-0.4376250765171047
2000-01-01 00:00:07.661111111,7.661111111111111,0.2302216977709195,-0.9021952214397176
2000-01-01 00:00:07.680555555,7.680555555555555,0.2759574732929152,-1.3667653663623305
2000-01-01 00:00:07.700000000,7.7,0.3216932488149109,-1.5216220813365349
2000-01-01 00:00:07.719444444,7.719444444444445,0.2912027318002471,-1.2893370088752285
2000-01-01 00:00:07.738888888,7.738888888888889,-0.0899287308830501,-0.5150534340042069
2000-01-01 00:00:07.758333333,7.758333333333334,-0.242381315956369,-0.2827683615429004
2000-01-01 00:00:07.777777777,7.777777777777778,-0.2728718329710328,-1.057051936413922
2000-01-01 00:00:07.797222222,7.7972222222222225,-0.3490981255076922,-1.057051936413922
2000-01-01 00:00:07.816666666,7.816666666666666,-0.3948339010296879,-1.2893370088752285
2000-01-01 00:00:07.836111111,7.836111111111111,-0.3338528670003604,-1.057051936413922
2000-01-01 00:00:07.855555555,7.855555555555556,-0.2576265744637009,-0.3601967190300025
2000-01-01 00:00:07.875000000,7.875,-0.2271360574490371,-0.2053400040557982
2000-01-01 00:00:07.894444444,7.894444444444445,-0.1661550234197095,-0.7473385064655134
2000-01-01 00:00:07.913888888,7.913888888888889,-0.1661550234197095,-0.7473385064655134
2000-01-01 00:00:07.933333333,7.933333333333334,-0.1509097649123777,-1.3667653663623305
2000-01-01 00:00:07.952777777,7.9527777777777775,-0.1814002819270414,-1.2119086513881263
2000-01-01 00:00:07.972222222,7.972222222222222,-0.2118907989417052,-0.3601967190300025
2000-01-01 00:00:07.991666666,7.991666666666667,-0.1204192478977139,-0.1279116465686961
2000-01-01 00:00:08.011111111,8.011111111111111,-0.0137024383463906,-0.3601967190300025
2000-01-01 00:00:08.030555555,8.030555555555555,-0.3490981255076922,-0.8247668639526154
2000-01-01 00:00:08.050000000,8.05,-0.3490981255076922,-1.2119086513881263
2000-01-01 00:00:08.069444444,8.069444444444445,-0.1966455404343733,-0.7473385064655134
2000-01-01 00:00:08.088888888,8.088888888888889,-0.105173989390382,-0.1279116465686961
2000-01-01 00:00:08.108333333,8.108333333333334,0.2454669562782514,-0.0504832890815939
2000-01-01 00:00:08.127777777,8.127777777777778,0.1997311807562558,-0.7473385064655134
2000-01-01 00:00:08.147222222,8.147222222222222,0.0625238541902687,-0.9021952214397176
2000-01-01 00:00:08.166666666,8.166666666666666,-0.2728718329710328,-1.057051936413922
2000-01-01 00:00:08.186111111,8.186111111111112,-0.2576265744637009,-1.2119086513881263
2000-01-01 00:00:08.205555555,8.205555555555556,-0.242381315956369,-0.4376250765171047
2000-01-01 00:00:08.225000000,8.225,-0.3338528670003604,-0.3601967190300025
2000-01-01 00:00:08.244444444,8.244444444444445,1.9376906505920912,-0.5150534340042069
2000-01-01 00:00:08.263888888,8.26388888888889,1.8919548750700956,-2.7604758011301693
2000-01-01 00:00:08.283333333,8.283333333333333,0.0472785956829368,-1.444193723849433
2000-01-01 00:00:08.302777777,8.302777777777777,-0.3643433840150241,-1.2119086513881263
2000-01-01 00:00:08.322222222,8.322222222222223,-0.5015507105810112,-0.3601967190300025
2000-01-01 00:00:08.341666666,8.341666666666667,-0.532041227595675,-0.2053400040557982
2000-01-01 00:00:08.361111111,8.36111111111111,-0.5015507105810112,-0.6699101489784112
2000-01-01 00:00:08.380555555,8.380555555555556,-0.5472864861030068,-0.9021952214397176
2000-01-01 00:00:08.400000000,8.4,-0.5777770031176707,-1.057051936413922
2000-01-01 00:00:08.419444444,8.419444444444444,-0.5015507105810112,-1.2119086513881263
2000-01-01 00:00:08.438888888,8.438888888888888,-0.4253244180443517,-0.9021952214397176
2000-01-01 00:00:08.458333333,8.458333333333334,-0.3643433840150241,-0.4376250765171047
2000-01-01 00:00:08.477777777,8.477777777777778,-0.2271360574490371,-0.3601967190300025
2000-01-01 00:00:08.497222222,8.497222222222222,-0.105173989390382,-0.7473385064655134
2000-01-01 00:00:08.516666666,8.516666666666667,-0.0137024383463906,-0.7473385064655134
2000-01-01 00:00:08.536111111,8.536111111111111,0.2912027318002471,-1.2119086513881263
2000-01-01 00:00:08.555555555,8.555555555555555,0.4741458338882298,-1.2119086513881263
2000-01-01 00:00:08.574999999,8.575,0.4284100583662341,-0.7473385064655134
2000-01-01 00:00:08.594444444,8.594444444444445,0.3521837658295746,-0.6699101489784112
2000-01-01 00:00:08.613888888,8.613888888888889,0.0015428201609412,-0.6699101489784112
2000-01-01 00:00:08.633333333,8.633333333333333,-0.1356645064050458,-0.6699101489784112
2000-01-01 00:00:08.652777777,8.652777777777779,-0.105173989390382,-0.5924817914913091
2000-01-01 00:00:08.672222222,8.672222222222222,-0.0899287308830501,-0.7473385064655134
2000-01-01 00:00:08.691666666,8.691666666666666,-0.0594382138683863,-0.5150534340042069
2000-01-01 00:00:08.711111111,8.711111111111112,-0.0441929553610544,-0.3601967190300025
2000-01-01 00:00:08.730555555,8.730555555555556,-0.0594382138683863,-0.5150534340042069
2000-01-01 00:00:08.750000000,8.75,-0.0594382138683863,-0.3601967190300025
2000-01-01 00:00:08.769444444,8.769444444444444,0.016788078668273,-0.4376250765171047
2000-01-01 00:00:08.788888888,8.78888888888889,0.0472785956829368,-0.5924817914913091
2000-01-01 00:00:08.808333333,8.808333333333334,-0.0289476968537225,-0.5924817914913091
2000-01-01 00:00:08.827777777,8.827777777777778,-0.0289476968537225,-0.1279116465686961
2000-01-01 00:00:08.847222222,8.847222222222223,-0.0289476968537225,-0.2827683615429004
2000-01-01 00:00:08.866666666,8.866666666666667,0.0015428201609412,-0.5924817914913091
2000-01-01 00:00:08.886111111,8.886111111111111,-0.0289476968537225,-0.3601967190300025
2000-01-01 00:00:08.905555555,8.905555555555555,0.0320333371756049,-0.5924817914913091
2000-01-01 00:00:08.925000000,8.925,-0.0441929553610544,-0.5924817914913091
2000-01-01 00:00:08.944444444,8.944444444444445,-0.0137024383463906,-0.2053400040557982
2000-01-01 00:00:08.963888888,8.963888888888889,0.0320333371756049,-0.2053400040557982
2000-01-01 00:00:08.983333333,8.983333333333334,0.0320333371756049,-0.4376250765171047
2000-01-01 00:00:09.002777777,9.002777777777778,0.2302216977709195,-0.4376250765171047
2000-01-01 00:00:09.022222222,9.022222222222222,0.4741458338882298,-0.3601967190300025
2000-01-01 00:00:09.041666666,9.041666666666666,0.306447990307579,-0.7473385064655134
2000-01-01 00:00:09.061111111,9.061111111111112,0.1387501467269282,-0.5924817914913091
2000-01-01 00:00:09.080555555,9.080555555555556,-0.1204192478977139,0.0269450684055081
2000-01-01 00:00:09.100000000,9.1,-0.1661550234197095,-0.2053400040557982
2000-01-01 00:00:09.119444444,9.119444444444444,-0.1204192478977139,-0.5150534340042069
2000-01-01 00:00:09.138888888,9.13888888888889,-0.2118907989417052,-0.3601967190300025
2000-01-01 00:00:09.158333333,9.158333333333331,1.7547475485041086,-0.5924817914913091
2000-01-01 00:00:09.177777777,9.177777777777775,2.1663695282020696,-2.8379041586172713
2000-01-01 00:00:09.197222222,9.197222222222225,0.2302216977709195,-0.4376250765171047
2000-01-01 00:00:09.216666666,9.216666666666669,-0.3338528670003604,-0.2053400040557982
2000-01-01 00:00:09.236111111,9.23611111111111,-0.4710601935663474,0.0269450684055081
2000-01-01 00:00:09.255555555,9.255555555555556,-0.4405696765516836,0.0269450684055081
2000-01-01 00:00:09.275000000,9.275,-0.4253244180443517,-0.3601967190300025
2000-01-01 00:00:09.294444444,9.294444444444444,-0.4405696765516836,-0.6699101489784112
2000-01-01 00:00:09.313888888,9.313888888888888,-0.4100791595370198,-0.9796235789268196
2000-01-01 00:00:09.333333333,9.333333333333334,-0.4253244180443517,-0.4376250765171047
2000-01-01 00:00:09.352777777,9.352777777777778,-0.3948339010296879,-0.0504832890815939
2000-01-01 00:00:09.372222222,9.372222222222222,-0.379588642522356,-0.1279116465686961
2000-01-01 00:00:09.391666666,9.391666666666667,-0.2728718329710328,-0.3601967190300025
2000-01-01 00:00:09.411111111,9.411111111111111,-0.1966455404343733,-0.7473385064655134
2000-01-01 00:00:09.430555555,9.430555555555555,-0.0441929553610544,-0.9021952214397176
2000-01-01 00:00:09.450000000,9.45,0.0625238541902687,-0.6699101489784112
2000-01-01 00:00:09.469444444,9.469444444444443,0.2454669562782514,-0.2827683615429004
2000-01-01 00:00:09.488888888,9.488888888888887,0.4131647998589022,-0.3601967190300025
2000-01-01 00:00:09.508333333,9.508333333333333,0.3521837658295746,-0.8247668639526154
2000-01-01 00:00:09.527777777,9.52777777777778,0.1235048882195963,-0.5924817914913091
2000-01-01 00:00:09.547222222,9.547222222222222,-0.0899287308830501,-0.8247668639526154
2000-01-01 00:00:09.566666666,9.566666666666666,-0.1204192478977139,-0.9021952214397176
2000-01-01 00:00:09.586111111,9.586111111111112,-0.1966455404343733,-0.2827683615429004
2000-01-01 00:00:09.605555555,9.605555555555556,-0.1204192478977139,0.3366584983539167
2000-01-01 00:00:09.625000000,9.625,-0.105173989390382,0.2592301408668146
2000-01-01 00:00:09.644444444,9.644444444444444,-0.1204192478977139,-0.2053400040557982
2000-01-01 00:00:09.663888888,9.66388888888889,-0.1814002819270414,-0.5150534340042069
2000-01-01 00:00:09.683333333,9.683333333333334,-0.1204192478977139,-0.8247668639526154
2000-01-01 00:00:09.702777777,9.702777777777778,-0.1204192478977139,-0.5150534340042069
2000-01-01 00:00:09.722222222,9.722222222222223,-0.0137024383463906,0.1818017833797124
2000-01-01 00:00:09.741666666,9.741666666666667,0.016788078668273,0.1818017833797124
2000-01-01 00:00:09.761111111,9.761111111111113,-0.105173989390382,-0.1279116465686961
2000-01-01 00:00:09.780555555,9.780555555555557,-0.0594382138683863,-0.2053400040557982
2000-01-01 00:00:09.800000000,9.8,-0.105173989390382,-0.6699101489784112
2000-01-01 00:00:09.819444444,9.819444444444445,-0.1356645064050458,-0.6699101489784112
2000-01-01 00:00:09.838888888,9.838888888888889,-0.0594382138683863,-0.1279116465686961
2000-01-01 00:00:09.858333333,9.858333333333334,-0.105173989390382,0.0269450684055081
2000-01-01 00:00:09.877777777,9.877777777777778,-0.0289476968537225,-0.2053400040557982
2000-01-01 00:00:09.897222222,9.897222222222222,0.016788078668273,-0.2827683615429004
2000-01-01 00:00:09.916666666,9.916666666666666,-0.0137024383463906,-0.4376250765171047
2000-01-01 00:00:09.936111111,9.936111111111112,0.4284100583662341,-0.5924817914913091
2000-01-01 00:00:09.955555555,9.955555555555556,0.1387501467269282,-0.5150534340042069
2000-01-01 00:00:09.975000000,9.975,0.016788078668273,-0.0504832890815939
2000-01-01 00:00:09.994444444,9.994444444444444,-0.1356645064050458,-0.2053400040557982
2000-01-01 00:00:10.013888888,10.01388888888889,-0.2271360574490371,-0.4376250765171047
2000-01-01 00:00:10.033333333,10.033333333333331,-0.2728718329710328,-0.3601967190300025
2000-01-01 00:00:10.052777777,10.052777777777775,-0.3490981255076922,-0.5150534340042069
2000-01-01 00:00:10.072222222,10.072222222222225,1.3431255688061476,-0.2827683615429004
2000-01-01 00:00:10.091666666,10.091666666666669,2.6084820249146943,-1.7539071537978412
2000-01-01 00:00:10.111111111,10.11111111111111,-0.0594382138683863,0.2592301408668146
2000-01-01 00:00:10.130555555,10.130555555555556,-0.5015507105810112,-0.2053400040557982
2000-01-01 00:00:10.150000000,10.15,-0.5777770031176707,-0.3601967190300025
2000-01-01 00:00:10.169444444,10.169444444444444,-0.532041227595675,-0.5924817914913091
2000-01-01 00:00:10.188888888,10.188888888888888,-0.5930222616250025,-0.5150534340042069
2000-01-01 00:00:10.208333333,10.208333333333334,-0.4710601935663474,-0.3601967190300025
2000-01-01 00:00:10.227777777,10.227777777777778,-0.5472864861030068,0.0269450684055081
2000-01-01 00:00:10.247222222,10.247222222222222,-0.5625317446103387,-0.3601967190300025
2000-01-01 00:00:10.266666666,10.266666666666667,-0.5777770031176707,-0.5150534340042069
2000-01-01 00:00:10.286111111,10.286111111111111,-0.4558149350590155,-0.2827683615429004
2000-01-01 00:00:10.305555555,10.305555555555555,-0.3033623499856966,-0.4376250765171047
2000-01-01 00:00:10.325000000,10.325,-0.1814002819270414,-0.7473385064655134
2000-01-01 00:00:10.344444444,10.344444444444443,0.0320333371756049,-0.1279116465686961
2000-01-01 00:00:10.363888888,10.363888888888887,0.1997311807562558,-0.2053400040557982
2000-01-01 00:00:10.383333333,10.383333333333333,0.2607122147855833,-0.9021952214397176
2000-01-01 00:00:10.402777777,10.40277777777778,0.2912027318002471,-0.7473385064655134
2000-01-01 00:00:10.422222222,10.422222222222222,0.1235048882195963,-0.5150534340042069
2000-01-01 00:00:10.441666666,10.441666666666666,-0.0594382138683863,-0.3601967190300025
2000-01-01 00:00:10.461111111,10.461111111111112,-0.1509097649123777,0.0269450684055081
2000-01-01 00:00:10.480555555,10.480555555555556,-0.1966455404343733,-0.0504832890815939
2000-01-01 00:00:10.500000000,10.5,-0.2576265744637009,-0.2053400040557982
2000-01-01 00:00:10.519444444,10.519444444444444,-0.3186076084930285,-0.0504832890815939
2000-01-01 00:00:10.538888888,10.53888888888889,-0.1814002819270414,-0.0504832890815939
2000-01-01 00:00:10.558333333,10.558333333333334,-0.0899287308830501,-0.2827683615429004
2000-01-01 00:00:10.577777777,10.577777777777778,-0.0899287308830501,-0.3601967190300025
2000-01-01 00:00:10.597222222,10.597222222222223,-0.105173989390382,0.1043734258926103
2000-01-01 00:00:10.616666666,10.616666666666667,-0.1509097649123777,0.2592301408668146
2000-01-01 00:00:10.636111111,10.636111111111113,-0.105173989390382,-0.2053400040557982
2000-01-01 00:00:10.655555555,10.655555555555557,-0.105173989390382,-0.0504832890815939
2000-01-01 00:00:10.675000000,10.675,-0.1509097649123777,-0.2827683615429004
2000-01-01 00:00:10.694444444,10.694444444444445,-0.1204192478977139,-0.3601967190300025
2000-01-01 00:00:10.713888888,10.713888888888889,-0.1814002819270414,0.1043734258926103
2000-01-01 00:00:10.733333333,10.733333333333334,-0.1356645064050458,0.1818017833797124
2000-01-01 00:00:10.752777777,10.752777777777778,-0.1661550234197095,-0.0504832890815939
2000-01-01 00:00:10.772222222,10.772222222222222,-0.1204192478977139,0.1818017833797124
2000-01-01 00:00:10.791666666,10.791666666666666,-0.105173989390382,-0.2827683615429004
2000-01-01 00:00:10.811111111,10.811111111111112,-0.0899287308830501,-0.2053400040557982
2000-01-01 00:00:10.830555555,10.830555555555556,0.0015428201609412,0.0269450684055081
2000-01-01 00:00:10.850000000,10.85,0.3521837658295746,0.2592301408668146
2000-01-01 00:00:10.869444444,10.869444444444444,0.306447990307579,0.0269450684055081
2000-01-01 00:00:10.888888888,10.88888888888889,0.2149764392635876,-0.0504832890815939
2000-01-01 00:00:10.908333333,10.908333333333331,-0.0289476968537225,-0.2053400040557982
2000-01-01 00:00:10.927777777,10.927777777777775,-0.0441929553610544,-0.2053400040557982
2000-01-01 00:00:10.947222222,10.947222222222225,-0.1509097649123777,-0.3601967190300025
2000-01-01 00:00:10.966666666,10.966666666666669,-0.242381315956369,0.1043734258926103
2000-01-01 00:00:10.986111111,10.98611111111111,0.7485604870202038,0.1818017833797124
2000-01-01 00:00:11.005555555,11.005555555555556,3.1115755556566467,-1.8313355112849432
2000-01-01 00:00:11.025000000,11.025,0.3674290243369065,0.0269450684055081
2000-01-01 00:00:11.044444444,11.044444444444444,-0.242381315956369,-0.5150534340042069
2000-01-01 00:00:11.063888888,11.063888888888888,-0.3338528670003604,-0.5150534340042069
2000-01-01 00:00:11.083333333,11.083333333333334,-0.4100791595370198,0.0269450684055081
2000-01-01 00:00:11.102777777,11.102777777777778,-0.3186076084930285,0.4915152133281211
2000-01-01 00:00:11.122222222,11.122222222222222,-0.4100791595370198,0.1818017833797124
2000-01-01 00:00:11.141666666,11.141666666666667,-0.3338528670003604,0.1818017833797124
2000-01-01 00:00:11.161111111,11.161111111111111,-0.2881170914783647,-0.5150534340042069
2000-01-01 00:00:11.180555555,11.180555555555555,-0.3186076084930285,-0.5150534340042069
2000-01-01 00:00:11.200000000,11.2,-0.2576265744637009,0.0269450684055081
2000-01-01 00:00:11.219444444,11.219444444444443,-0.1509097649123777,0.2592301408668146
2000-01-01 00:00:11.238888888,11.238888888888887,0.0625238541902687,0.0269450684055081
2000-01-01 00:00:11.258333333,11.258333333333333,0.2912027318002471,-0.1279116465686961
2000-01-01 00:00:11.277777777,11.27777777777778,0.4284100583662341,-0.8247668639526154
2000-01-01 00:00:11.297222222,11.297222222222222,0.5503721264248893,-0.7473385064655134
2000-01-01 00:00:11.316666666,11.316666666666666,0.3369385073222428,-0.2053400040557982
2000-01-01 00:00:11.336111111,11.336111111111112,0.169240663741592,0.0269450684055081
2000-01-01 00:00:11.355555555,11.355555555555556,0.016788078668273,0.1043734258926103
2000-01-01 00:00:11.375000000,11.375,-0.0746834723757182,0.0269450684055081
2000-01-01 00:00:11.394444444,11.394444444444444,-0.0746834723757182,-0.1279116465686961
2000-01-01 00:00:11.413888888,11.41388888888889,-0.1204192478977139,-0.5150534340042069
2000-01-01 00:00:11.433333333,11.433333333333334,-0.1509097649123777,0.1043734258926103
2000-01-01 00:00:11.452777777,11.452777777777778,-0.0899287308830501,0.1818017833797124
2000-01-01 00:00:11.472222222,11.472222222222223,0.016788078668273,0.1818017833797124
2000-01-01 00:00:11.491666666,11.491666666666667,0.0015428201609412,0.2592301408668146
2000-01-01 00:00:11.511111111,11.511111111111113,0.0472785956829368,-0.2053400040557982
2000-01-01 00:00:11.530555555,11.530555555555557,0.016788078668273,-0.5150534340042069
2000-01-01 00:00:11.550000000,11.55,-0.0289476968537225,0.0269450684055081
2000-01-01 00:00:11.569444444,11.569444444444445,0.0015428201609412,0.3366584983539167
2000-01-01 00:00:11.588888888,11.588888888888889,0.0015428201609412,0.2592301408668146
2000-01-01 00:00:11.608333333,11.608333333333334,0.016788078668273,0.1818017833797124
2000-01-01 00:00:11.627777777,11.627777777777778,0.0777691126976006,-0.2053400040557982
2000-01-01 00:00:11.647222222,11.647222222222222,-0.0289476968537225,-0.4376250765171047
2000-01-01 00:00:11.666666666,11.666666666666666,0.0015428201609412,-0.1279116465686961
2000-01-01 00:00:11.686111111,11.686111111111112,0.0015428201609412,0.5689435708152232
2000-01-01 00:00:11.705555555,11.705555555555556,0.016788078668273,0.2592301408668146
2000-01-01 00:00:11.725000000,11.725,0.1082596297122644,0.4915152133281211
2000-01-01 00:00:11.744444444,11.744444444444444,0.3216932488149109,-0.1279116465686961
2000-01-01 00:00:11.763888888,11.76388888888889,0.5046363509028936,-0.5150534340042069
2000-01-01 00:00:11.783333333,11.783333333333331,0.3674290243369065,-0.1279116465686961
2000-01-01 00:00:11.802777777,11.802777777777775,0.0777691126976006,0.4915152133281211
2000-01-01 00:00:11.822222222,11.822222222222225,0.0930143712049325,0.4140868558410189
2000-01-01 00:00:11.841666666,11.841666666666669,0.0320333371756049,0.1043734258926103
2000-01-01 00:00:11.861111111,11.86111111111111,0.0320333371756049,-0.2053400040557982
2000-01-01 00:00:11.880555555,11.880555555555556,0.4741458338882298,-0.1279116465686961
2000-01-01 00:00:11.900000000,11.9,3.9043289980379057,-1.8313355112849432
2000-01-01 00:00:11.919444444,11.919444444444444,0.7942962625421995,0.6463719283023254
2000-01-01 00:00:11.938888888,11.938888888888888,0.0320333371756049,0.4915152133281211
2000-01-01 00:00:11.958333333,11.958333333333334,-0.0899287308830501,0.2592301408668146
2000-01-01 00:00:11.977777777,11.977777777777778,-0.1661550234197095,0.1818017833797124
2000-01-01 00:00:11.997222222,11.997222222222222,-0.242381315956369,-0.3601967190300025
2000-01-01 00:00:12.016666666,12.016666666666667,-0.242381315956369,0.0269450684055081
2000-01-01 00:00:12.036111111,12.036111111111111,-0.1814002819270414,0.3366584983539167
2000-01-01 00:00:12.055555555,12.055555555555555,-0.1661550234197095,0.6463719283023254
2000-01-01 00:00:12.075000000,12.075,-0.0899287308830501,0.1043734258926103
2000-01-01 00:00:12.094444444,12.094444444444443,-0.0594382138683863,0.1818017833797124
2000-01-01 00:00:12.113888888,12.113888888888887,0.0472785956829368,-0.3601967190300025
2000-01-01 00:00:12.133333333,12.133333333333333,0.1235048882195963,-0.2827683615429004
2000-01-01 00:00:12.152777777,12.15277777777778,0.2302216977709195,0.1818017833797124
2000-01-01 00:00:12.172222222,12.172222222222222,0.5046363509028936,0.2592301408668146
2000-01-01 00:00:12.191666666,12.191666666666666,0.6875794529908763,-0.2827683615429004
2000-01-01 00:00:12.211111111,12.211111111111112,0.6418436774688806,-0.2053400040557982
2000-01-01 00:00:12.230555555,12.230555555555556,0.3979195413515703,-0.9021952214397176
2000-01-01 00:00:12.250000000,12.25,0.1844859222489238,-0.7473385064655134
2000-01-01 00:00:12.269444444,12.269444444444444,0.1235048882195963,0.1043734258926103
2000-01-01 00:00:12.288888888,12.28888888888889,0.1082596297122644,0.4915152133281211
2000-01-01 00:00:12.308333333,12.308333333333334,0.0930143712049325,0.1043734258926103
2000-01-01 00:00:12.327777777,12.327777777777778,0.0625238541902687,0.1818017833797124
2000-01-01 00:00:12.347222222,12.347222222222223,0.0777691126976006,-0.4376250765171047
2000-01-01 00:00:12.366666666,12.366666666666667,0.1235048882195963,-0.5924817914913091
2000-01-01 00:00:12.386111111,12.386111111111113,0.1235048882195963,0.1043734258926103
2000-01-01 00:00:12.405555555,12.405555555555557,0.1844859222489238,0.7238002857894276
2000-01-01 00:00:12.425000000,12.425,0.1387501467269282,0.3366584983539167
2000-01-01 00:00:12.444444444,12.444444444444445,0.1387501467269282,0.1043734258926103
2000-01-01 00:00:12.463888888,12.463888888888889,0.1235048882195963,-0.3601967190300025
2000-01-01 00:00:12.483333333,12.483333333333334,0.1387501467269282,-0.5924817914913091
2000-01-01 00:00:12.502777777,12.502777777777778,0.1082596297122644,-0.3601967190300025
2000-01-01 00:00:12.522222222,12.522222222222222,0.1082596297122644,0.4915152133281211
2000-01-01 00:00:12.541666666,12.541666666666666,0.1844859222489238,0.4915152133281211
2000-01-01 00:00:12.561111111,12.561111111111112,0.1539954052342601,0.4140868558410189
2000-01-01 00:00:12.580555555,12.580555555555556,0.1844859222489238,-0.0504832890815939
2000-01-01 00:00:12.600000000,12.6,0.1082596297122644,-0.6699101489784112
2000-01-01 00:00:12.619444444,12.619444444444444,0.1997311807562558,-0.2827683615429004
2000-01-01 00:00:12.638888888,12.63888888888889,0.2759574732929152,0.6463719283023254
2000-01-01 00:00:12.658333333,12.658333333333331,0.7485604870202038,0.5689435708152232
2000-01-01 00:00:12.677777777,12.677777777777775,0.5351268679175574,-0.1279116465686961
2000-01-01 00:00:12.697222222,12.697222222222225,0.3826742828442385,-0.3601967190300025
2000-01-01 00:00:12.716666666,12.716666666666669,0.1235048882195963,-0.8247668639526154
2000-01-01 00:00:12.736111111,12.73611111111111,0.1082596297122644,-0.3601967190300025
2000-01-01 00:00:12.755555555,12.755555555555556,0.0472785956829368,0.2592301408668146
2000-01-01 00:00:12.775000000,12.775,-0.0594382138683863,0.4140868558410189
2000-01-01 00:00:12.794444444,12.794444444444444,2.2883315962607247,-0.0504832890815939
2000-01-01 00:00:12.813888888,12.813888888888888,1.3278803102988157,-1.599050438823637
2000-01-01 00:00:12.833333333,12.833333333333334,0.3521837658295746,-0.4376250765171047
2000-01-01 00:00:12.852777777,12.852777777777778,-0.1966455404343733,-0.5150534340042069
2000-01-01 00:00:12.872222222,12.872222222222222,-0.2271360574490371,0.0269450684055081
2000-01-01 00:00:12.891666666,12.891666666666667,-0.2118907989417052,0.3366584983539167
2000-01-01 00:00:12.911111111,12.911111111111111,-0.2118907989417052,0.0269450684055081
2000-01-01 00:00:12.930555555,12.930555555555555,-0.242381315956369,0.0269450684055081
2000-01-01 00:00:12.950000000,12.95,-0.2271360574490371,-0.6699101489784112
2000-01-01 00:00:12.969444444,12.969444444444443,-0.2271360574490371,-0.3601967190300025
2000-01-01 00:00:12.988888888,12.988888888888887,-0.105173989390382,0.4140868558410189
2000-01-01 00:00:13.008333333,13.008333333333333,-0.0137024383463906,0.4140868558410189
2000-01-01 00:00:13.027777777,13.02777777777778,0.1082596297122644,0.0269450684055081
2000-01-01 00:00:13.047222222,13.047222222222222,0.2607122147855833,-0.2827683615429004
2000-01-01 00:00:13.066666666,13.066666666666666,0.4131647998589022,-0.6699101489784112
2000-01-01 00:00:13.086111111,13.086111111111112,0.5503721264248893,-0.7473385064655134
2000-01-01 00:00:13.105555555,13.105555555555556,0.5351268679175574,-0.0504832890815939
2000-01-01 00:00:13.125000000,13.125,0.3369385073222428,0.0269450684055081
2000-01-01 00:00:13.144444444,13.144444444444444,0.1997311807562558,-0.1279116465686961
2000-01-01 00:00:13.163888888,13.16388888888889,0.0777691126976006,-0.3601967190300025
2000-01-01 00:00:13.183333333,13.183333333333334,-0.0289476968537225,-0.9021952214397176
2000-01-01 00:00:13.202777777,13.202777777777778,-0.0594382138683863,-0.6699101489784112
2000-01-01 00:00:13.222222222,13.222222222222223,0.0777691126976006,0.2592301408668146
2000-01-01 00:00:13.241666666,13.241666666666667,0.1539954052342601,0.3366584983539167
2000-01-01 00:00:13.261111111,13.261111111111113,0.1235048882195963,-0.2053400040557982
2000-01-01 00:00:13.280555555,13.280555555555557,0.1387501467269282,-0.5150534340042069
2000-01-01 00:00:13.300000000,13.3,0.169240663741592,-1.057051936413922
2000-01-01 00:00:13.319444444,13.319444444444445,0.0930143712049325,-0.5150534340042069
2000-01-01 00:00:13.338888888,13.338888888888889,0.1235048882195963,0.0269450684055081
2000-01-01 00:00:13.358333333,13.358333333333334,0.1387501467269282,-0.0504832890815939
2000-01-01 00:00:13.377777777,13.377777777777778,0.169240663741592,-0.3601967190300025
2000-01-01 00:00:13.397222222,13.397222222222222,0.0777691126976006,-0.3601967190300025
2000-01-01 00:00:13.416666666,13.416666666666666,0.0472785956829368,-0.5150534340042069
2000-01-01 00:00:13.436111111,13.436111111111112,0.0625238541902687,-0.5150534340042069
2000-01-01 00:00:13.455555555,13.455555555555556,0.0625238541902687,0.0269450684055081
2000-01-01 00:00:13.475000000,13.475,0.1235048882195963,0.1818017833797124
2000-01-01 00:00:13.494444444,13.494444444444444,0.0472785956829368,-0.2053400040557982
2000-01-01 00:00:13.513888888,13.51388888888889,0.0320333371756049,-0.0504832890815939
2000-01-01 00:00:13.533333333,13.533333333333331,0.1997311807562558,-0.4376250765171047
2000-01-01 00:00:13.552777777,13.552777777777775,0.3826742828442385,-0.3601967190300025
2000-01-01 00:00:13.572222222,13.572222222222225,0.2759574732929152,-0.0504832890815939
2000-01-01 00:00:13.591666666,13.591666666666669,0.0777691126976006,0.2592301408668146
2000-01-01 00:00:13.611111111,13.61111111111111,-0.0594382138683863,-0.1279116465686961
2000-01-01 00:00:13.630555555,13.630555555555556,-0.1661550234197095,0.0269450684055081
2000-01-01 00:00:13.650000000,13.65,-0.1966455404343733,-0.3601967190300025
2000-01-01 00:00:13.669444444,13.669444444444444,-0.2118907989417052,-0.2053400040557982
2000-01-01 00:00:13.688888888,13.68888888888889,3.767121671471918,-1.5216220813365349
2000-01-01 00:00:13.708333333,13.708333333333334,0.306447990307579,0.7238002857894276
2000-01-01 00:00:13.727777777,13.727777777777778,-0.3490981255076922,0.4140868558410189
2000-01-01 00:00:13.747222222,13.747222222222222,-0.6082675201323344,0.1818017833797124
2000-01-01 00:00:13.766666666,13.766666666666667,-0.5930222616250025,-0.2053400040557982
2000-01-01 00:00:13.786111111,13.786111111111111,-0.669248554161662,-0.2827683615429004
2000-01-01 00:00:13.805555555,13.805555555555555,-0.669248554161662,0.3366584983539167
2000-01-01 00:00:13.825000000,13.825,-0.7607201052056533,0.8012286432765297
2000-01-01 00:00:13.844444444,13.844444444444443,-0.6844938126689939,0.2592301408668146
2000-01-01 00:00:13.863888888,13.863888888888887,-0.7302295881909895,0.1043734258926103
2000-01-01 00:00:13.883333333,13.883333333333333,-0.669248554161662,-0.2053400040557982
2000-01-01 00:00:13.902777777,13.90277777777778,-0.6082675201323344,-0.1279116465686961
2000-01-01 00:00:13.922222222,13.922222222222222,-0.4558149350590155,0.4915152133281211
2000-01-01 00:00:13.941666666,13.941666666666666,-0.2118907989417052,0.6463719283023254
2000-01-01 00:00:13.961111111,13.961111111111112,-0.0899287308830501,0.4140868558410189
2000-01-01 00:00:13.980555555,13.980555555555556,-0.0289476968537225,0.1043734258926103
2000-01-01 00:00:14.000000000,14.0,-0.242381315956369,-0.3601967190300025
2000-01-01 00:00:14.019444444,14.019444444444444,-0.4253244180443517,-0.2053400040557982
2000-01-01 00:00:14.038888888,14.03888888888889,-0.4863054520736792,0.6463719283023254
2000-01-01 00:00:14.058333333,14.058333333333334,-0.5625317446103387,1.2657987881991426
2000-01-01 00:00:14.077777777,14.077777777777778,-0.5777770031176707,1.033513715737836
2000-01-01 00:00:14.097222222,14.097222222222223,-0.5472864861030068,0.8012286432765297
2000-01-01 00:00:14.116666666,14.116666666666667,-0.5015507105810112,-0.1279116465686961
2000-01-01 00:00:14.136111111,14.136111111111113,-0.4710601935663474,0.4140868558410189
2000-01-01 00:00:14.155555555,14.155555555555557,-0.3490981255076922,1.1883704307120404
2000-01-01 00:00:14.175000000,14.175,-0.2576265744637009,1.4206555031733468
2000-01-01 00:00:14.194444444,14.194444444444445,-0.2118907989417052,0.8786570007636318
2000-01-01 00:00:14.213888888,14.213888888888889,-0.1661550234197095,0.8786570007636318
2000-01-01 00:00:14.233333333,14.233333333333334,-0.1966455404343733,0.6463719283023254
2000-01-01 00:00:14.252777777,14.252777777777778,-0.1204192478977139,0.7238002857894276
2000-01-01 00:00:14.272222222,14.272222222222222,-0.1204192478977139,1.1883704307120404
2000-01-01 00:00:14.291666666,14.291666666666666,-0.0746834723757182,1.4206555031733468
2000-01-01 00:00:14.311111111,14.311111111111112,-0.0137024383463906,1.1109420732249382
2000-01-01 00:00:14.330555555,14.330555555555556,-0.0289476968537225,1.033513715737836
2000-01-01 00:00:14.350000000,14.35,-0.0137024383463906,0.7238002857894276
2000-01-01 00:00:14.369444444,14.369444444444444,0.0625238541902687,0.956085358250734
2000-01-01 00:00:14.388888888,14.38888888888889,0.1235048882195963,1.4206555031733468
2000-01-01 00:00:14.408333333,14.408333333333331,0.5808626434395531,1.7303689331217555
2000-01-01 00:00:14.427777777,14.427777777777775,0.4284100583662341,1.5755122181475512
2000-01-01 00:00:14.447222222,14.447222222222225,0.3216932488149109,1.2657987881991426
2000-01-01 00:00:14.466666666,14.466666666666669,0.1082596297122644,1.1883704307120404
2000-01-01 00:00:14.486111111,14.48611111111111,0.0930143712049325,0.8012286432765297
2000-01-01 00:00:14.505555555,14.505555555555556,0.0777691126976006,1.033513715737836
2000-01-01 00:00:14.525000000,14.525,0.0015428201609412,1.6529405756346534
2000-01-01 00:00:14.544444444,14.544444444444444,1.5413139294014622,1.7303689331217555
2000-01-01 00:00:14.563888888,14.56388888888889,2.7151988344660176,-0.9021952214397176
2000-01-01 00:00:14.583333333,14.583333333333334,0.6113531604542168,1.033513715737836
2000-01-01 00:00:14.602777777,14.602777777777778,0.0472785956829368,0.956085358250734
2000-01-01 00:00:14.622222222,14.622222222222222,-0.1204192478977139,1.033513715737836
2000-01-01 00:00:14.641666666,14.641666666666667,-0.105173989390382,1.3432271456862448
2000-01-01 00:00:14.661111111,14.661111111111111,-0.1204192478977139,1.8077972906088575
2000-01-01 00:00:14.680555555,14.680555555555555,-0.1356645064050458,1.498083860660449
2000-01-01 00:00:14.700000000,14.7,-0.1661550234197095,1.3432271456862448
2000-01-01 00:00:14.719444444,14.719444444444443,-0.1356645064050458,1.033513715737836
2000-01-01 00:00:14.738888888,14.738888888888887,-0.0746834723757182,1.1109420732249382
2000-01-01 00:00:14.758333333,14.758333333333333,0.0930143712049325,1.3432271456862448
2000-01-01 00:00:14.777777777,14.77777777777778,0.169240663741592,1.8077972906088575
2000-01-01 00:00:14.797222222,14.797222222222222,0.3216932488149109,1.498083860660449
2000-01-01 00:00:14.816666666,14.816666666666666,0.5198816094102254,1.2657987881991426
2000-01-01 00:00:14.836111111,14.836111111111112,0.6570889359762124,0.8786570007636318
2000-01-01 00:00:14.855555555,14.855555555555556,0.7485604870202038,0.4915152133281211
2000-01-01 00:00:14.875000000,14.875,0.5961079019468849,1.1109420732249382
2000-01-01 00:00:14.894444444,14.894444444444444,0.3674290243369065,1.8852256480959595
2000-01-01 00:00:14.913888888,14.91388888888889,0.1844859222489238,1.8077972906088575
2000-01-01 00:00:14.933333333,14.933333333333334,0.0472785956829368,1.2657987881991426
2000-01-01 00:00:14.952777777,14.952777777777778,-0.0289476968537225,1.2657987881991426
2000-01-01 00:00:14.972222222,14.972222222222223,0.0472785956829368,1.1883704307120404
2000-01-01 00:00:14.991666666,14.991666666666667,0.1235048882195963,1.3432271456862448
2000-01-01 00:00:15.011111111,15.011111111111113,0.0777691126976006,1.962654005583062
2000-01-01 00:00:15.030555555,15.030555555555557,0.0777691126976006,1.8852256480959595
2000-01-01 00:00:15.050000000,15.05,0.1235048882195963,1.4206555031733468
2000-01-01 00:00:15.069444444,15.069444444444445,0.0625238541902687,1.498083860660449
2000-01-01 00:00:15.088888888,15.088888888888889,0.1844859222489238,1.2657987881991426
2000-01-01 00:00:15.108333333,15.108333333333334,0.2302216977709195,1.2657987881991426
2000-01-01 00:00:15.127777777,15.127777777777778,0.1844859222489238,1.2657987881991426
2000-01-01 00:00:15.147222222,15.147222222222222,0.1387501467269282,1.6529405756346534
2000-01-01 00:00:15.166666666,15.166666666666666,0.0930143712049325,1.6529405756346534
2000-01-01 00:00:15.186111111,15.186111111111112,0.0930143712049325,1.5755122181475512
2000-01-01 00:00:15.205555555,15.205555555555556,0.1235048882195963,1.7303689331217555
2000-01-01 00:00:15.225000000,15.225,0.2149764392635876,1.3432271456862448
2000-01-01 00:00:15.244444444,15.244444444444444,0.1539954052342601,1.1109420732249382
2000-01-01 00:00:15.263888888,15.26388888888889,0.1235048882195963,1.6529405756346534
2000-01-01 00:00:15.283333333,15.283333333333331,0.1387501467269282,1.8852256480959595
2000-01-01 00:00:15.302777777,15.302777777777775,0.2454669562782514,1.498083860660449
2000-01-01 00:00:15.322222222,15.322222222222225,0.4893910923955616,1.6529405756346534
2000-01-01 00:00:15.341666666,15.341666666666669,0.4131647998589022,1.033513715737836
2000-01-01 00:00:15.361111111,15.36111111111111,0.2912027318002471,1.1109420732249382
2000-01-01 00:00:15.380555555,15.380555555555556,0.0777691126976006,1.1109420732249382
2000-01-01 00:00:15.400000000,15.4,-0.0137024383463906,1.1883704307120404
2000-01-01 00:00:15.419444444,15.419444444444444,-0.0899287308830501,1.1883704307120404
2000-01-01 00:00:15.438888888,15.43888888888889,-0.3033623499856966,1.2657987881991426
2000-01-01 00:00:15.458333333,15.458333333333334,2.379803147304716,1.3432271456862448
2000-01-01 00:00:15.477777777,15.477777777777778,1.6785212559674492,-0.9021952214397176
2000-01-01 00:00:15.497222222,15.497222222222222,0.5046363509028936,0.8012286432765297
2000-01-01 00:00:15.516666666,15.516666666666667,-0.2728718329710328,1.033513715737836
2000-01-01 00:00:15.536111111,15.536111111111111,-0.3948339010296879,1.4206555031733468
2000-01-01 00:00:15.555555555,15.555555555555555,-0.379588642522356,1.1883704307120404
2000-01-01 00:00:15.575000000,15.575,-0.3490981255076922,1.1883704307120404
2000-01-01 00:00:15.594444444,15.594444444444443,-0.2576265744637009,0.4915152133281211
2000-01-01 00:00:15.613888888,15.613888888888887,-0.379588642522356,0.4140868558410189
2000-01-01 00:00:15.633333333,15.633333333333333,-0.3643433840150241,0.7238002857894276
2000-01-01 00:00:15.652777777,15.65277777777778,-0.3186076084930285,0.956085358250734
2000-01-01 00:00:15.672222222,15.672222222222222,-0.2576265744637009,0.956085358250734
2000-01-01 00:00:15.691666666,15.691666666666666,-0.0746834723757182,0.956085358250734
2000-01-01 00:00:15.711111111,15.711111111111112,0.0930143712049325,0.8012286432765297
2000-01-01 00:00:15.730555555,15.730555555555556,0.1844859222489238,0.2592301408668146
2000-01-01 00:00:15.750000000,15.75,0.3826742828442385,0.1043734258926103
2000-01-01 00:00:15.769444444,15.769444444444444,0.4893910923955616,0.5689435708152232
2000-01-01 00:00:15.788888888,15.78888888888889,0.4284100583662341,0.5689435708152232
2000-01-01 00:00:15.808333333,15.808333333333334,0.169240663741592,0.8012286432765297
2000-01-01 00:00:15.827777777,15.827777777777778,0.0015428201609412,0.6463719283023254
2000-01-01 00:00:15.847222222,15.847222222222223,-0.0746834723757182,0.1818017833797124
2000-01-01 00:00:15.866666666,15.866666666666667,-0.1356645064050458,0.1043734258926103
2000-01-01 00:00:15.886111111,15.886111111111113,-0.1356645064050458,0.7238002857894276
2000-01-01 00:00:15.905555555,15.905555555555557,-0.1356645064050458,0.956085358250734
2000-01-01 00:00:15.925000000,15.925,-0.0899287308830501,0.8786570007636318
2000-01-01 00:00:15.944444444,15.944444444444445,-0.0441929553610544,0.8786570007636318
2000-01-01 00:00:15.963888888,15.963888888888889,-0.0289476968537225,0.1818017833797124
2000-01-01 00:00:15.983333333,15.983333333333334,-0.105173989390382,-0.1279116465686961
2000-01-01 00:00:16.002777777,16.002777777777776,-0.1204192478977139,0.4915152133281211
2000-01-01 00:00:16.022222222,16.022222222222222,-0.0746834723757182,0.6463719283023254
2000-01-01 00:00:16.041666666,16.041666666666668,-0.0746834723757182,0.8786570007636318
2000-01-01 00:00:16.061111111,16.06111111111111,-0.0746834723757182,0.8012286432765297
2000-01-01 00:00:16.080555555,16.080555555555556,-0.1204192478977139,0.1818017833797124
2000-01-01 00:00:16.100000000,16.1,-0.1509097649123777,-0.2053400040557982
2000-01-01 00:00:16.119444444,16.119444444444444,-0.1661550234197095,0.2592301408668146
2000-01-01 00:00:16.138888888,16.13888888888889,-0.1661550234197095,0.6463719283023254
2000-01-01 00:00:16.158333333,16.158333333333335,-0.105173989390382,0.956085358250734
2000-01-01 00:00:16.177777777,16.177777777777777,-0.0441929553610544,0.4140868558410189
2000-01-01 00:00:16.197222222,16.197222222222223,0.016788078668273,0.4140868558410189
2000-01-01 00:00:16.216666666,16.21666666666667,0.2607122147855833,-0.0504832890815939
2000-01-01 00:00:16.236111111,16.23611111111111,0.3369385073222428,-0.0504832890815939
2000-01-01 00:00:16.255555555,16.255555555555556,0.1997311807562558,0.4140868558410189
2000-01-01 00:00:16.274999999,16.275,0.0625238541902687,0.5689435708152232
2000-01-01 00:00:16.294444444,16.294444444444444,-0.1356645064050458,0.3366584983539167
2000-01-01 00:00:16.313888888,16.31388888888889,-0.242381315956369,-0.3601967190300025
2000-01-01 00:00:16.333333333,16.333333333333332,-0.3490981255076922,-0.5150534340042069
2000-01-01 00:00:16.352777777,16.352777777777778,-0.4558149350590155,-0.7473385064655134
2000-01-01 00:00:16.372222222,16.372222222222224,1.0992014326888373,-0.2053400040557982
2000-01-01 00:00:16.391666666,16.391666666666666,1.7852380655187725,-1.9087638687720456
2000-01-01 00:00:16.411111111,16.41111111111111,0.1539954052342601,0.6463719283023254
2000-01-01 00:00:16.430555555,16.430555555555557,-0.65400329565433,-0.1279116465686961
2000-01-01 00:00:16.450000000,16.45,-0.8369463977423127,-0.2053400040557982
2000-01-01 00:00:16.469444444,16.469444444444445,-0.8217011392349809,-0.5150534340042069
2000-01-01 00:00:16.488888888,16.48888888888889,-0.7759653637129852,-0.7473385064655134
2000-01-01 00:00:16.508333333,16.508333333333333,-0.7454748466983214,-0.2053400040557982
2000-01-01 00:00:16.527777777,16.52777777777778,-0.7454748466983214,0.1818017833797124
2000-01-01 00:00:16.547222222,16.54722222222222,-0.7759653637129852,-0.0504832890815939
2000-01-01 00:00:16.566666666,16.566666666666666,-0.669248554161662,-0.2053400040557982
2000-01-01 00:00:16.586111111,16.586111111111112,-0.7149843296836577,-0.2827683615429004
2000-01-01 00:00:16.605555555,16.605555555555554,-0.6082675201323344,-0.5924817914913091
2000-01-01 00:00:16.625000000,16.625,-0.4558149350590155,-0.9021952214397176
2000-01-01 00:00:16.644444444,16.644444444444446,-0.3338528670003604,-0.2827683615429004
2000-01-01 00:00:16.663888888,16.663888888888888,-0.1814002819270414,-0.2053400040557982
2000-01-01 00:00:16.683333333,16.683333333333334,-0.0594382138683863,-0.5924817914913091
2000-01-01 00:00:16.702777777,16.70277777777778,-0.0594382138683863,-0.6699101489784112
2000-01-01 00:00:16.722222222,16.72222222222222,-0.1204192478977139,-0.9021952214397176
2000-01-01 00:00:16.741666666,16.741666666666667,-0.3033623499856966,-0.6699101489784112
2000-01-01 00:00:16.761111111,16.761111111111113,-0.4710601935663474,-0.3601967190300025
2000-01-01 00:00:16.780555555,16.780555555555555,-0.516795969088343,-0.0504832890815939
2000-01-01 00:00:16.800000000,16.8,-0.5015507105810112,-0.2827683615429004
2000-01-01 00:00:16.819444444,16.819444444444446,-0.5015507105810112,-0.1279116465686961
2000-01-01 00:00:16.838888888,16.83888888888889,-0.4405696765516836,-0.2827683615429004
2000-01-01 00:00:16.858333333,16.858333333333334,-0.3033623499856966,-0.5924817914913091
2000-01-01 00:00:16.877777777,16.877777777777776,-0.242381315956369,-0.2053400040557982
2000-01-01 00:00:16.897222222,16.897222222222222,-0.242381315956369,-0.1279116465686961
2000-01-01 00:00:16.916666666,16.916666666666668,-0.2271360574490371,-0.0504832890815939
2000-01-01 00:00:16.936111111,16.93611111111111,-0.1814002819270414,-0.3601967190300025
2000-01-01 00:00:16.955555555,16.955555555555556,-0.1509097649123777,-0.2827683615429004
2000-01-01 00:00:16.975000000,16.975,-0.1814002819270414,-0.5150534340042069
2000-01-01 00:00:16.994444444,16.994444444444444,-0.1814002819270414,-0.6699101489784112
2000-01-01 00:00:17.013888888,17.01388888888889,-0.1966455404343733,-0.1279116465686961
2000-01-01 00:00:17.033333333,17.033333333333335,-0.1966455404343733,-0.2827683615429004
2000-01-01 00:00:17.052777777,17.052777777777777,-0.1814002819270414,-0.4376250765171047
2000-01-01 00:00:17.072222222,17.072222222222223,-0.1356645064050458,-0.1279116465686961
2000-01-01 00:00:17.091666666,17.09166666666667,-0.0594382138683863,-0.3601967190300025
2000-01-01 00:00:17.111111111,17.11111111111111,0.0015428201609412,-0.4376250765171047
2000-01-01 00:00:17.130555555,17.130555555555556,0.4589005753808979,0.0269450684055081
2000-01-01 00:00:17.149999999,17.15,0.3216932488149109,-0.1279116465686961
2000-01-01 00:00:17.169444444,17.169444444444444,0.2302216977709195,-0.0504832890815939
2000-01-01 00:00:17.188888888,17.18888888888889,-0.0441929553610544,-0.2827683615429004
2000-01-01 00:00:17.208333333,17.208333333333332,-0.0594382138683863,-0.2053400040557982
2000-01-01 00:00:17.227777777,17.227777777777778,-0.0594382138683863,-0.5150534340042069
2000-01-01 00:00:17.247222222,17.247222222222224,-0.0441929553610544,-0.5924817914913091
2000-01-01 00:00:17.266666666,17.266666666666666,-0.0289476968537225,0.2592301408668146
2000-01-01 00:00:17.286111111,17.28611111111111,4.254969943706539,-0.9021952214397176
2000-01-01 00:00:17.305555555,17.305555555555557,0.7790510040348676,0.2592301408668146
2000-01-01 00:00:17.325000000,17.325,0.0930143712049325,-0.0504832890815939
2000-01-01 00:00:17.344444444,17.344444444444445,-0.1509097649123777,-0.2053400040557982
2000-01-01 00:00:17.363888888,17.36388888888889,-0.1509097649123777,-0.3601967190300025
2000-01-01 00:00:17.383333333,17.383333333333333,-0.1661550234197095,-0.1279116465686961
2000-01-01 00:00:17.402777777,17.40277777777778,-0.1356645064050458,0.1818017833797124
2000-01-01 00:00:17.422222222,17.422222222222224,-0.1661550234197095,0.0269450684055081
2000-01-01 00:00:17.441666666,17.441666666666666,-0.105173989390382,0.3366584983539167
2000-01-01 00:00:17.461111111,17.461111111111112,-0.0289476968537225,-0.1279116465686961
2000-01-01 00:00:17.480555555,17.480555555555554,-0.0289476968537225,-0.3601967190300025
2000-01-01 00:00:17.500000000,17.5,0.0625238541902687,-0.2053400040557982
2000-01-01 00:00:17.519444444,17.519444444444446,0.2454669562782514,0.2592301408668146
2000-01-01 00:00:17.538888888,17.538888888888888,0.4589005753808979,-0.0504832890815939
2000-01-01 00:00:17.558333333,17.558333333333334,0.6418436774688806,0.1043734258926103
2000-01-01 00:00:17.577777777,17.57777777777778,0.7790510040348676,-0.2053400040557982
2000-01-01 00:00:17.597222222,17.59722222222222,0.7638057455275357,-0.5150534340042069
2000-01-01 00:00:17.616666666,17.616666666666667,0.5656173849322211,-0.3601967190300025
2000-01-01 00:00:17.636111111,17.636111111111113,0.3674290243369065,0.2592301408668146
2000-01-01 00:00:17.655555555,17.655555555555555,0.1844859222489238,0.4140868558410189
2000-01-01 00:00:17.675000000,17.675,0.2149764392635876,0.3366584983539167
2000-01-01 00:00:17.694444444,17.694444444444446,0.1844859222489238,0.0269450684055081
2000-01-01 00:00:17.713888888,17.71388888888889,0.1997311807562558,-0.2827683615429004
2000-01-01 00:00:17.733333333,17.733333333333334,0.2149764392635876,0.0269450684055081
2000-01-01 00:00:17.752777777,17.752777777777776,0.2759574732929152,0.4915152133281211
2000-01-01 00:00:17.772222222,17.772222222222222,0.2454669562782514,0.4915152133281211
2000-01-01 00:00:17.791666666,17.791666666666668,0.3216932488149109,0.1818017833797124
2000-01-01 00:00:17.811111111,17.81111111111111,0.2759574732929152,0.2592301408668146
2000-01-01 00:00:17.830555555,17.830555555555556,0.2302216977709195,-0.2053400040557982
2000-01-01 00:00:17.850000000,17.85,0.2149764392635876,0.0269450684055081
2000-01-01 00:00:17.869444444,17.869444444444444,0.1997311807562558,0.4140868558410189
2000-01-01 00:00:17.888888888,17.88888888888889,0.2149764392635876,0.4140868558410189
2000-01-01 00:00:17.908333333,17.908333333333335,0.2607122147855833,0.4915152133281211
2000-01-01 00:00:17.927777777,17.927777777777777,0.2149764392635876,0.0269450684055081
2000-01-01 00:00:17.947222222,17.947222222222223,0.2759574732929152,-0.4376250765171047
2000-01-01 00:00:17.966666666,17.96666666666667,0.3521837658295746,-0.2053400040557982
2000-01-01 00:00:17.986111111,17.98611111111111,0.5198816094102254,0.8012286432765297
2000-01-01 00:00:18.005555555,18.005555555555556,0.6723341944835444,0.3366584983539167
2000-01-01 00:00:18.025000000,18.025,0.5198816094102254,0.1043734258926103
2000-01-01 00:00:18.044444444,18.044444444444444,0.2302216977709195,-0.2053400040557982
2000-01-01 00:00:18.063888888,18.06388888888889,0.169240663741592,-0.2053400040557982
2000-01-01 00:00:18.083333333,18.083333333333332,0.1235048882195963,0.1043734258926103
2000-01-01 00:00:18.102777777,18.102777777777774,-0.0594382138683863,0.3366584983539167
2000-01-01 00:00:18.122222222,18.122222222222224,1.830973841040768,0.4915152133281211
2000-01-01 00:00:18.141666666,18.141666666666666,1.9529359090994232,-1.2119086513881263
2000-01-01 00:00:18.161111111,18.16111111111111,0.6723341944835444,-0.2053400040557982
2000-01-01 00:00:18.180555555,18.180555555555557,-0.0137024383463906,-0.6699101489784112
2000-01-01 00:00:18.200000000,18.2,-0.1356645064050458,-0.3601967190300025
2000-01-01 00:00:18.219444444,18.219444444444445,-0.1814002819270414,0.3366584983539167
2000-01-01 00:00:18.238888888,18.23888888888889,-0.1204192478977139,0.2592301408668146
2000-01-01 00:00:18.258333333,18.258333333333333,-0.1356645064050458,0.6463719283023254
2000-01-01 00:00:18.277777777,18.27777777777778,-0.1661550234197095,-0.1279116465686961
2000-01-01 00:00:18.297222222,18.297222222222224,-0.0899287308830501,-0.5150534340042069
2000-01-01 00:00:18.316666666,18.316666666666663,-0.0594382138683863,-0.3601967190300025
2000-01-01 00:00:18.336111111,18.336111111111112,-0.0137024383463906,0.3366584983539167
2000-01-01 00:00:18.355555555,18.35555555555555,0.1387501467269282,0.3366584983539167
2000-01-01 00:00:18.375000000,18.375,0.3826742828442385,0.2592301408668146
2000-01-01 00:00:18.394444444,18.39444444444445,0.6265984189615487,-0.4376250765171047
2000-01-01 00:00:18.413888888,18.413888888888888,0.7180699700055401,-0.7473385064655134
2000-01-01 00:00:18.433333333,18.433333333333337,0.7180699700055401,-0.6699101489784112
2000-01-01 00:00:18.452777777,18.45277777777778,0.5503721264248893,0.0269450684055081
2000-01-01 00:00:18.472222222,18.47222222222222,0.3369385073222428,0.1818017833797124
2000-01-01 00:00:18.491666666,18.491666666666667,0.2149764392635876,0.2592301408668146
2000-01-01 00:00:18.511111111,18.511111111111113,0.1387501467269282,0.2592301408668146
2000-01-01 00:00:18.530555555,18.530555555555555,0.1387501467269282,0.0269450684055081
2000-01-01 00:00:18.550000000,18.55,0.1387501467269282,-0.2053400040557982
2000-01-01 00:00:18.569444444,18.569444444444446,0.1539954052342601,0.2592301408668146
2000-01-01 00:00:18.588888888,18.58888888888889,0.1997311807562558,0.4915152133281211
2000-01-01 00:00:18.608333333,18.608333333333334,0.169240663741592,0.4140868558410189
2000-01-01 00:00:18.627777777,18.627777777777776,0.2149764392635876,0.1043734258926103
2000-01-01 00:00:18.647222222,18.647222222222226,0.1844859222489238,-0.5150534340042069
2000-01-01 00:00:18.666666666,18.666666666666668,0.169240663741592,-0.0504832890815939
2000-01-01 00:00:18.686111111,18.68611111111111,0.1997311807562558,0.4915152133281211
2000-01-01 00:00:18.705555555,18.705555555555556,0.1997311807562558,0.1818017833797124
2000-01-01 00:00:18.725000000,18.725,0.1997311807562558,0.1818017833797124
2000-01-01 00:00:18.744444444,18.744444444444444,0.1997311807562558,0.0269450684055081
2000-01-01 00:00:18.763888888,18.76388888888889,0.1539954052342601,-0.3601967190300025
2000-01-01 00:00:18.783333333,18.783333333333335,0.1387501467269282,-0.0504832890815939
2000-01-01 00:00:18.802777777,18.802777777777777,0.1387501467269282,0.3366584983539167
2000-01-01 00:00:18.822222222,18.822222222222223,0.3674290243369065,0.3366584983539167
2000-01-01 00:00:18.841666666,18.84166666666667,0.5656173849322211,0.2592301408668146
2000-01-01 00:00:18.861111111,18.86111111111111,0.4131647998589022,-0.4376250765171047
2000-01-01 00:00:18.880555555,18.880555555555556,0.1844859222489238,-0.3601967190300025
2000-01-01 00:00:18.900000000,18.9,0.016788078668273,0.3366584983539167
2000-01-01 00:00:18.919444444,18.919444444444444,-0.0441929553610544,0.1818017833797124
2000-01-01 00:00:18.938888888,18.93888888888889,-0.0594382138683863,0.0269450684055081
2000-01-01 00:00:18.958333333,18.958333333333332,1.007729881644846,0.1043734258926103
2000-01-01 00:00:18.977777777,18.977777777777774,2.852406161032005,-2.3733340136946586
2000-01-01 00:00:18.997222222,18.997222222222224,0.7028247114982081,-0.3601967190300025
2000-01-01 00:00:19.016666666,19.016666666666666,-0.1356645064050458,-0.1279116465686961
2000-01-01 00:00:19.036111111,19.03611111111111,-0.2576265744637009,0.0269450684055081
2000-01-01 00:00:19.055555555,19.055555555555557,-0.3033623499856966,0.1043734258926103
2000-01-01 00:00:19.075000000,19.075,-0.2881170914783647,0.1818017833797124
2000-01-01 00:00:19.094444444,19.094444444444445,-0.2271360574490371,-0.0504832890815939
2000-01-01 00:00:19.113888888,19.11388888888889,-0.2881170914783647,-0.3601967190300025
2000-01-01 00:00:19.133333333,19.133333333333333,-0.242381315956369,-0.5924817914913091
2000-01-01 00:00:19.152777777,19.15277777777778,-0.2576265744637009,-0.0504832890815939
2000-01-01 00:00:19.172222222,19.172222222222224,-0.1356645064050458,0.1043734258926103
2000-01-01 00:00:19.191666666,19.191666666666663,-0.0137024383463906,-0.0504832890815939
2000-01-01 00:00:19.211111111,19.211111111111112,0.1844859222489238,-0.4376250765171047
2000-01-01 00:00:19.230555555,19.23055555555555,0.3979195413515703,-0.6699101489784112
2000-01-01 00:00:19.250000000,19.25,0.4741458338882298,-0.7473385064655134
2000-01-01 00:00:19.269444444,19.26944444444445,0.4893910923955616,-0.1279116465686961
2000-01-01 00:00:19.288888888,19.288888888888888,0.3826742828442385,0.1043734258926103
2000-01-01 00:00:19.308333333,19.308333333333337,0.2149764392635876,-0.0504832890815939
2000-01-01 00:00:19.327777777,19.32777777777778,0.0625238541902687,-0.3601967190300025
2000-01-01 00:00:19.347222222,19.34722222222222,-0.0289476968537225,-0.5150534340042069
2000-01-01 00:00:19.366666666,19.366666666666667,-0.0441929553610544,-0.5150534340042069
2000-01-01 00:00:19.386111111,19.386111111111113,-0.0746834723757182,0.1043734258926103
2000-01-01 00:00:19.405555555,19.405555555555555,-0.0746834723757182,0.1818017833797124
2000-01-01 00:00:19.425000000,19.425,-0.0441929553610544,0.0269450684055081
2000-01-01 00:00:19.444444444,19.444444444444446,-0.0441929553610544,-0.1279116465686961
2000-01-01 00:00:19.463888888,19.46388888888889,-0.0594382138683863,-0.5150534340042069
2000-01-01 00:00:19.483333333,19.483333333333334,-0.0137024383463906,-0.7473385064655134
2000-01-01 00:00:19.502777777,19.502777777777776,-0.1204192478977139,-0.2053400040557982
2000-01-01 00:00:19.522222222,19.522222222222226,-0.105173989390382,-0.0504832890815939
2000-01-01 00:00:19.541666666,19.541666666666668,-0.0746834723757182,-0.0504832890815939
2000-01-01 00:00:19.561111111,19.56111111111111,-0.0441929553610544,0.0269450684055081
2000-01-01 00:00:19.580555555,19.580555555555556,-0.0289476968537225,-0.5924817914913091
2000-01-01 00:00:19.600000000,19.6,-0.0746834723757182,-0.7473385064655134
2000-01-01 00:00:19.619444444,19.619444444444444,-0.1661550234197095,-0.3601967190300025
2000-01-01 00:00:19.638888888,19.63888888888889,-0.0594382138683863,0.1043734258926103
2000-01-01 00:00:19.658333333,19.658333333333335,0.0320333371756049,0.1818017833797124
2000-01-01 00:00:19.677777777,19.677777777777777,0.1082596297122644,0.1818017833797124
2000-01-01 00:00:19.697222222,19.697222222222223,0.3521837658295746,-0.4376250765171047
2000-01-01 00:00:19.716666666,19.71666666666667,0.169240663741592,-0.8247668639526154
2000-01-01 00:00:19.736111111,19.73611111111111,0.0320333371756049,-0.3601967190300025
2000-01-01 00:00:19.755555555,19.755555555555556,-0.1661550234197095,0.0269450684055081
2000-01-01 00:00:19.775000000,19.775,-0.2118907989417052,-0.0504832890815939
2000-01-01 00:00:19.794444444,19.794444444444444,-0.2271360574490371,-0.1279116465686961
2000-01-01 00:00:19.813888888,19.81388888888889,-0.4710601935663474,-0.2053400040557982
2000-01-01 00:00:19.833333333,19.833333333333332,2.867651419539337,-0.7473385064655134
2000-01-01 00:00:19.852777777,19.852777777777774,0.7333152285128719,-1.599050438823637
2000-01-01 00:00:19.872222222,19.872222222222224,0.0015428201609412,0.0269450684055081
2000-01-01 00:00:19.891666666,19.891666666666666,-0.4558149350590155,0.1818017833797124
2000-01-01 00:00:19.911111111,19.91111111111111,-0.5777770031176707,0.0269450684055081
2000-01-01 00:00:19.930555555,19.930555555555557,-0.5625317446103387,-0.2053400040557982
2000-01-01 00:00:19.950000000,19.95,-0.5777770031176707,-0.9796235789268196
2000-01-01 00:00:19.969444444,19.969444444444445,-0.6235127786396663,-1.057051936413922
2000-01-01 00:00:19.988888888,19.98888888888889,-0.5777770031176707,0.0269450684055081
2000-01-01 00:00:20.008333333,20.008333333333333,-0.5472864861030068,0.2592301408668146
2000-01-01 00:00:20.027777777,20.02777777777778,-0.4710601935663474,-0.1279116465686961
2000-01-01 00:00:20.047222222,20.047222222222224,-0.4100791595370198,-0.2053400040557982
2000-01-01 00:00:20.066666666,20.066666666666663,-0.3338528670003604,-1.057051936413922
2000-01-01 00:00:20.086111111,20.086111111111112,-0.2271360574490371,-1.057051936413922
2000-01-01 00:00:20.105555555,20.10555555555555,-0.0137024383463906,-0.3601967190300025
2000-01-01 00:00:20.125000000,20.125,0.1539954052342601,0.0269450684055081
2000-01-01 00:00:20.144444444,20.14444444444445,0.2454669562782514,-0.3601967190300025
2000-01-01 00:00:20.163888888,20.163888888888888,0.1387501467269282,-0.5150534340042069
2000-01-01 00:00:20.183333333,20.183333333333337,-0.0594382138683863,-0.7473385064655134
2000-01-01 00:00:20.202777777,20.20277777777778,-0.2576265744637009,-0.8247668639526154
2000-01-01 00:00:20.222222222,20.22222222222222,-0.3643433840150241,-0.2827683615429004
2000-01-01 00:00:20.241666666,20.241666666666667,-0.3490981255076922,0.2592301408668146
2000-01-01 00:00:20.261111111,20.261111111111113,-0.242381315956369,0.3366584983539167
2000-01-01 00:00:20.280555555,20.280555555555555,-0.3033623499856966,-0.1279116465686961
2000-01-01 00:00:20.300000000,20.3,-0.3033623499856966,0.0269450684055081
2000-01-01 00:00:20.319444444,20.319444444444446,-0.3186076084930285,-0.6699101489784112
2000-01-01 00:00:20.338888888,20.33888888888889,-0.2728718329710328,-0.5924817914913091
2000-01-01 00:00:20.358333333,20.358333333333334,-0.2576265744637009,0.2592301408668146
2000-01-01 00:00:20.377777777,20.377777777777776,-0.2728718329710328,0.2592301408668146
2000-01-01 00:00:20.397222222,20.397222222222226,-0.3033623499856966,-0.1279116465686961
2000-01-01 00:00:20.416666666,20.416666666666668,-0.3338528670003604,-0.4376250765171047
2000-01-01 00:00:20.436111111,20.43611111111111,-0.3033623499856966,-0.8247668639526154
2000-01-01 00:00:20.455555555,20.455555555555556,-0.3338528670003604,-0.5924817914913091
2000-01-01 00:00:20.475000000,20.475,-0.3033623499856966,-0.0504832890815939
2000-01-01 00:00:20.494444444,20.494444444444444,-0.3186076084930285,0.0269450684055081
2000-01-01 00:00:20.513888888,20.51388888888889,-0.2728718329710328,-0.1279116465686961
2000-01-01 00:00:20.533333333,20.533333333333335,-0.3643433840150241,-0.2053400040557982
2000-01-01 00:00:20.552777777,20.552777777777777,-0.3033623499856966,-0.5150534340042069
2000-01-01 00:00:20.572222222,20.572222222222223,-0.0137024383463906,-0.7473385064655134
2000-01-01 00:00:20.591666666,20.59166666666667,0.1844859222489238,-0.2053400040557982
2000-01-01 00:00:20.611111111,20.61111111111111,0.1082596297122644,-0.0504832890815939
2000-01-01 00:00:20.630555555,20.630555555555556,-0.105173989390382,0.0269450684055081
2000-01-01 00:00:20.650000000,20.65,-0.3490981255076922,-0.5150534340042069
2000-01-01 00:00:20.669444444,20.669444444444444,-0.4100791595370198,-0.6699101489784112
2000-01-01 00:00:20.688888888,20.68888888888889,-0.4253244180443517,-0.5924817914913091
2000-01-01 00:00:20.708333333,20.708333333333332,-0.6235127786396663,-0.2827683615429004
2000-01-01 00:00:20.727777777,20.727777777777774,3.767121671471918,-1.057051936413922
2000-01-01 00:00:20.747222222,20.747222222222224,0.4284100583662341,0.2592301408668146
2000-01-01 00:00:20.766666666,20.766666666666666,-0.242381315956369,-0.4376250765171047
2000-01-01 00:00:20.786111111,20.78611111111111,-0.7149843296836577,-0.7473385064655134
2000-01-01 00:00:20.805555555,20.805555555555557,-0.7607201052056533,-0.7473385064655134
2000-01-01 00:00:20.825000000,20.825,-0.6997390711763257,-0.5924817914913091
2000-01-01 00:00:20.844444444,20.844444444444445,-0.5930222616250025,0.3366584983539167
2000-01-01 00:00:20.863888888,20.86388888888889,-0.5777770031176707,0.1818017833797124
2000-01-01 00:00:20.883333333,20.883333333333333,-0.6387580371469982,0.0269450684055081
2000-01-01 00:00:20.902777777,20.90277777777778,-0.5930222616250025,-0.2053400040557982
2000-01-01 00:00:20.922222222,20.922222222222224,-0.5777770031176707,-0.8247668639526154
2000-01-01 00:00:20.941666666,20.941666666666663,-0.3948339010296879,-0.4376250765171047
2000-01-01 00:00:20.961111111,20.961111111111112,-0.3033623499856966,0.0269450684055081
2000-01-01 00:00:20.980555555,20.98055555555555,-0.1204192478977139,-0.0504832890815939
2000-01-01 00:00:21.000000000,21.0,0.0015428201609412,-0.5150534340042069
2000-01-01 00:00:21.019444444,21.01944444444445,0.1844859222489238,-0.5924817914913091
2000-01-01 00:00:21.038888888,21.038888888888888,0.2454669562782514,-0.8247668639526154
2000-01-01 00:00:21.058333333,21.058333333333337,0.1082596297122644,-0.7473385064655134
2000-01-01 00:00:21.077777777,21.07777777777778,0.0320333371756049,-0.3601967190300025
2000-01-01 00:00:21.097222222,21.09722222222222,-0.1966455404343733,0.4140868558410189
2000-01-01 00:00:21.116666666,21.116666666666667,-0.3186076084930285,0.0269450684055081
2000-01-01 00:00:21.136111111,21.136111111111113,-0.379588642522356,-0.2053400040557982
2000-01-01 00:00:21.155555555,21.155555555555555,-0.3643433840150241,0.0269450684055081
2000-01-01 00:00:21.175000000,21.175,-0.3186076084930285,-0.2827683615429004
2000-01-01 00:00:21.194444444,21.194444444444446,-0.2728718329710328,-0.2053400040557982
2000-01-01 00:00:21.213888888,21.21388888888889,-0.2271360574490371,0.4140868558410189
2000-01-01 00:00:21.233333333,21.233333333333334,-0.2118907989417052,0.2592301408668146
2000-01-01 00:00:21.252777777,21.252777777777776,-0.242381315956369,-0.1279116465686961
2000-01-01 00:00:21.272222222,21.272222222222226,-0.2728718329710328,0.0269450684055081
2000-01-01 00:00:21.291666666,21.291666666666668,-0.2576265744637009,-0.2053400040557982
2000-01-01 00:00:21.311111111,21.31111111111111,-0.2271360574490371,-0.3601967190300025
2000-01-01 00:00:21.330555555,21.330555555555556,-0.2118907989417052,-0.2053400040557982
2000-01-01 00:00:21.350000000,21.35,-0.2271360574490371,0.2592301408668146
2000-01-01 00:00:21.369444444,21.369444444444444,-0.2728718329710328,0.2592301408668146
2000-01-01 00:00:21.388888888,21.38888888888889,-0.2576265744637009,-0.0504832890815939
2000-01-01 00:00:21.408333333,21.408333333333335,-0.2728718329710328,-0.1279116465686961
2000-01-01 00:00:21.427777777,21.427777777777777,-0.2271360574490371,-0.4376250765171047
2000-01-01 00:00:21.447222222,21.447222222222223,-0.1814002819270414,-0.3601967190300025
2000-01-01 00:00:21.466666666,21.46666666666667,-0.0746834723757182,-0.0504832890815939
2000-01-01 00:00:21.486111111,21.48611111111111,0.2149764392635876,0.1818017833797124
2000-01-01 00:00:21.505555555,21.505555555555556,0.1082596297122644,0.0269450684055081
2000-01-01 00:00:21.525000000,21.525,-0.1356645064050458,-0.0504832890815939
2000-01-01 00:00:21.544444444,21.544444444444444,-0.2118907989417052,-0.5150534340042069
2000-01-01 00:00:21.563888888,21.56388888888889,-0.2728718329710328,-0.7473385064655134
2000-01-01 00:00:21.583333333,21.583333333333332,-0.3338528670003604,-0.2827683615429004
2000-01-01 00:00:21.602777777,21.602777777777774,-0.5777770031176707,0.1818017833797124
2000-01-01 00:00:21.622222222,21.622222222222224,3.325009174759294,-0.5924817914913091
2000-01-01 00:00:21.641666666,21.641666666666666,0.5961079019468849,-0.5150534340042069
2000-01-01 00:00:21.661111111,21.66111111111111,-0.0289476968537225,-0.3601967190300025
2000-01-01 00:00:21.680555555,21.680555555555557,-0.532041227595675,-0.4376250765171047
2000-01-01 00:00:21.700000000,21.7,-0.6387580371469982,-0.3601967190300025
2000-01-01 00:00:21.719444444,21.719444444444445,-0.6387580371469982,0.2592301408668146
2000-01-01 00:00:21.738888888,21.73888888888889,-0.669248554161662,0.1043734258926103
2000-01-01 00:00:21.758333333,21.758333333333333,-0.6235127786396663,0.0269450684055081
2000-01-01 00:00:21.777777777,21.77777777777778,-0.6235127786396663,-0.4376250765171047
2000-01-01 00:00:21.797222222,21.797222222222224,-0.5777770031176707,-0.8247668639526154
2000-01-01 00:00:21.816666666,21.816666666666663,-0.5777770031176707,-0.6699101489784112
2000-01-01 00:00:21.836111111,21.836111111111112,-0.516795969088343,-0.1279116465686961
2000-01-01 00:00:21.855555555,21.85555555555555,-0.3338528670003604,0.1818017833797124
2000-01-01 00:00:21.875000000,21.875,-0.1814002819270414,-0.2053400040557982
2000-01-01 00:00:21.894444444,21.89444444444445,0.0472785956829368,-0.7473385064655134
2000-01-01 00:00:21.913888888,21.913888888888888,0.2149764392635876,-1.2893370088752285
2000-01-01 00:00:21.933333333,21.933333333333337,0.2149764392635876,-1.134480293901024
2000-01-01 00:00:21.952777777,21.95277777777778,0.1082596297122644,-0.5924817914913091
2000-01-01 00:00:21.972222222,21.97222222222222,-0.105173989390382,0.0269450684055081
2000-01-01 00:00:21.991666666,21.991666666666667,-0.3033623499856966,-0.2053400040557982
2000-01-01 00:00:22.011111111,22.011111111111113,-0.3186076084930285,-0.3601967190300025
2000-01-01 00:00:22.030555555,22.030555555555555,-0.3338528670003604,-0.5150534340042069
2000-01-01 00:00:22.050000000,22.05,-0.3338528670003604,-0.5924817914913091
2000-01-01 00:00:22.069444444,22.069444444444446,-0.3338528670003604,-0.0504832890815939
2000-01-01 00:00:22.088888888,22.08888888888889,-0.3186076084930285,0.2592301408668146
2000-01-01 00:00:22.108333333,22.108333333333334,-0.2881170914783647,0.0269450684055081
2000-01-01 00:00:22.127777777,22.127777777777776,-0.2271360574490371,-0.1279116465686961
2000-01-01 00:00:22.147222222,22.147222222222226,-0.3186076084930285,-0.6699101489784112
2000-01-01 00:00:22.166666666,22.166666666666668,-0.2728718329710328,-0.9021952214397176
2000-01-01 00:00:22.186111111,22.18611111111111,-0.2881170914783647,-0.3601967190300025
2000-01-01 00:00:22.205555555,22.205555555555556,-0.242381315956369,-0.0504832890815939
2000-01-01 00:00:22.225000000,22.225,-0.2576265744637009,0.1818017833797124
2000-01-01 00:00:22.244444444,22.244444444444444,-0.1814002819270414,-0.0504832890815939
2000-01-01 00:00:22.263888888,22.26388888888889,-0.2271360574490371,0.0269450684055081
2000-01-01 00:00:22.283333333,22.283333333333335,-0.2118907989417052,-0.7473385064655134
2000-01-01 00:00:22.302777777,22.302777777777777,-0.2728718329710328,-0.7473385064655134
2000-01-01 00:00:22.322222222,22.322222222222223,-0.2881170914783647,-0.1279116465686961
2000-01-01 00:00:22.341666666,22.34166666666667,-0.1509097649123777,0.2592301408668146
2000-01-01 00:00:22.361111111,22.36111111111111,0.1387501467269282,0.0269450684055081
2000-01-01 00:00:22.380555555,22.380555555555556,0.2149764392635876,-0.0504832890815939
2000-01-01 00:00:22.400000000,22.4,-0.0137024383463906,-0.7473385064655134
2000-01-01 00:00:22.419444444,22.419444444444444,-0.3033623499856966,-1.057051936413922
2000-01-01 00:00:22.438888888,22.43888888888889,-0.3643433840150241,-0.5150534340042069
2000-01-01 00:00:22.458333333,22.458333333333332,-0.4405696765516836,-0.1279116465686961
2000-01-01 00:00:22.477777777,22.477777777777774,-0.4253244180443517,-0.3601967190300025
2000-01-01 00:00:22.497222222,22.497222222222224,-0.4253244180443517,-0.2053400040557982
2000-01-01 00:00:22.516666666,22.516666666666666,3.2335376237153017,-2.9927608735914757
2000-01-01 00:00:22.536111111,22.53611111111111,-0.1204192478977139,-0.7473385064655134
2000-01-01 00:00:22.555555555,22.555555555555557,-0.6235127786396663,-0.3601967190300025
2000-01-01 00:00:22.575000000,22.575,-0.7149843296836577,0.0269450684055081
2000-01-01 00:00:22.594444444,22.594444444444445,-0.7302295881909895,-0.2827683615429004
2000-01-01 00:00:22.613888888,22.61388888888889,-0.7454748466983214,-0.4376250765171047
2000-01-01 00:00:22.633333333,22.633333333333333,-0.7454748466983214,-0.7473385064655134
2000-01-01 00:00:22.652777777,22.65277777777778,-0.8217011392349809,-1.3667653663623305
2000-01-01 00:00:22.672222222,22.672222222222224,-0.6844938126689939,-0.7473385064655134
2000-01-01 00:00:22.691666666,22.691666666666663,-0.669248554161662,0.0269450684055081
2000-01-01 00:00:22.711111111,22.711111111111112,-0.5930222616250025,-0.2827683615429004
2000-01-01 00:00:22.730555555,22.73055555555555,-0.4710601935663474,-0.4376250765171047
2000-01-01 00:00:22.750000000,22.75,-0.379588642522356,-0.9796235789268196
2000-01-01 00:00:22.769444444,22.76944444444445,-0.2271360574490371,-1.2893370088752285
2000-01-01 00:00:22.788888888,22.788888888888888,-0.105173989390382,-1.057051936413922
2000-01-01 00:00:22.808333333,22.808333333333337,0.1082596297122644,-0.4376250765171047
2000-01-01 00:00:22.827777777,22.82777777777778,0.0930143712049325,-0.6699101489784112
2000-01-01 00:00:22.847222222,22.84722222222222,-0.0746834723757182,-0.8247668639526154
2000-01-01 00:00:22.866666666,22.866666666666667,-0.2576265744637009,-1.057051936413922
2000-01-01 00:00:22.886111111,22.886111111111113,-0.4100791595370198,-1.2119086513881263
2000-01-01 00:00:22.905555555,22.905555555555555,-0.4253244180443517,-0.8247668639526154
2000-01-01 00:00:22.925000000,22.925,-0.3490981255076922,-0.1279116465686961
2000-01-01 00:00:22.944444444,22.944444444444446,-0.3490981255076922,0.1818017833797124
2000-01-01 00:00:22.963888888,22.96388888888889,-0.3033623499856966,-0.2053400040557982
2000-01-01 00:00:22.983333333,22.983333333333334,-0.4253244180443517,-0.4376250765171047
2000-01-01 00:00:23.002777777,23.002777777777776,-0.379588642522356,-1.134480293901024
2000-01-01 00:00:23.022222222,23.022222222222226,-0.3338528670003604,-1.3667653663623305
2000-01-01 00:00:23.041666666,23.041666666666668,-0.3338528670003604,-0.2827683615429004
2000-01-01 00:00:23.061111111,23.06111111111111,-0.3643433840150241,0.1818017833797124
2000-01-01 00:00:23.080555555,23.080555555555556,-0.3490981255076922,-0.5150534340042069
2000-01-01 00:00:23.100000000,23.1,-0.379588642522356,-0.3601967190300025
2000-01-01 00:00:23.119444444,23.119444444444444,-0.379588642522356,-1.057051936413922
2000-01-01 00:00:23.138888888,23.13888888888889,-0.3948339010296879,-0.9796235789268196
2000-01-01 00:00:23.158333333,23.158333333333335,-0.3948339010296879,-0.5924817914913091
2000-01-01 00:00:23.177777777,23.177777777777777,-0.3033623499856966,-0.1279116465686961
2000-01-01 00:00:23.197222222,23.197222222222223,-0.2728718329710328,-0.2053400040557982
2000-01-01 00:00:23.216666666,23.21666666666667,-0.0289476968537225,-0.2827683615429004
2000-01-01 00:00:23.236111111,23.23611111111111,0.0625238541902687,-0.9021952214397176
2000-01-01 00:00:23.255555555,23.255555555555556,-0.1356645064050458,-1.057051936413922
2000-01-01 00:00:23.275000000,23.275,-0.3033623499856966,-0.9796235789268196
2000-01-01 00:00:23.294444444,23.294444444444444,-0.379588642522356,-0.4376250765171047
2000-01-01 00:00:23.313888888,23.31388888888889,-0.4100791595370198,-0.2827683615429004
2000-01-01 00:00:23.333333333,23.333333333333332,-0.4558149350590155,-0.5924817914913091
2000-01-01 00:00:23.352777777,23.352777777777774,-0.5015507105810112,-0.6699101489784112
2000-01-01 00:00:23.372222222,23.372222222222224,4.2397246851992065,-2.3733340136946586
2000-01-01 00:00:23.391666666,23.391666666666666,-0.0289476968537225,-0.3601967190300025
2000-01-01 00:00:23.411111111,23.41111111111111,-0.516795969088343,-0.2053400040557982
2000-01-01 00:00:23.430555555,23.430555555555557,-0.6844938126689939,-0.1279116465686961
2000-01-01 00:00:23.450000000,23.45,-0.6844938126689939,-0.7473385064655134
2000-01-01 00:00:23.469444444,23.469444444444445,-0.7454748466983214,-0.8247668639526154
2000-01-01 00:00:23.488888888,23.48888888888889,-0.6997390711763257,-0.9021952214397176
2000-01-01 00:00:23.508333333,23.508333333333333,-0.6235127786396663,-0.4376250765171047
2000-01-01 00:00:23.527777777,23.52777777777778,-0.5625317446103387,-0.1279116465686961
2000-01-01 00:00:23.547222222,23.547222222222224,-0.5015507105810112,-0.1279116465686961
2000-01-01 00:00:23.566666666,23.566666666666663,-0.4405696765516836,-0.3601967190300025
2000-01-01 00:00:23.586111111,23.586111111111112,-0.3338528670003604,-0.8247668639526154
2000-01-01 00:00:23.605555555,23.60555555555555,-0.1509097649123777,-0.9021952214397176
2000-01-01 00:00:23.625000000,23.625,0.0777691126976006,-0.5924817914913091
2000-01-01 00:00:23.644444444,23.64444444444445,0.3216932488149109,-0.2053400040557982
2000-01-01 00:00:23.663888888,23.663888888888888,0.3521837658295746,-0.3601967190300025
2000-01-01 00:00:23.683333333,23.683333333333337,0.1844859222489238,-0.4376250765171047
2000-01-01 00:00:23.702777777,23.70277777777778,-0.0441929553610544,-0.6699101489784112
2000-01-01 00:00:23.722222222,23.72222222222222,-0.1966455404343733,-0.6699101489784112
2000-01-01 00:00:23.741666666,23.741666666666667,-0.1966455404343733,-0.2827683615429004
2000-01-01 00:00:23.761111111,23.761111111111113,-0.1966455404343733,0.3366584983539167
2000-01-01 00:00:23.780555555,23.780555555555555,-0.1661550234197095,0.3366584983539167
2000-01-01 00:00:23.800000000,23.8,-0.1509097649123777,-0.0504832890815939
2000-01-01 00:00:23.819444444,23.819444444444446,-0.1509097649123777,-0.2827683615429004
2000-01-01 00:00:23.838888888,23.83888888888889,-0.1509097649123777,-0.6699101489784112
2000-01-01 00:00:23.858333333,23.858333333333334,-0.1204192478977139,-0.2053400040557982
2000-01-01 00:00:23.877777777,23.877777777777776,-0.0899287308830501,0.5689435708152232
2000-01-01 00:00:23.897222222,23.897222222222226,-0.0594382138683863,0.5689435708152232
2000-01-01 00:00:23.916666666,23.916666666666668,-0.0899287308830501,0.2592301408668146
2000-01-01 00:00:23.936111111,23.93611111111111,-0.105173989390382,-0.0504832890815939
2000-01-01 00:00:23.955555555,23.955555555555556,-0.105173989390382,-0.3601967190300025
2000-01-01 00:00:23.975000000,23.975,-0.0441929553610544,0.1043734258926103
2000-01-01 00:00:23.994444444,23.994444444444444,-0.0289476968537225,0.8786570007636318
2000-01-01 00:00:24.013888888,24.01388888888889,-0.0441929553610544,0.5689435708152232
2000-01-01 00:00:24.033333333,24.033333333333335,-0.0289476968537225,0.2592301408668146
2000-01-01 00:00:24.052777777,24.052777777777777,0.0320333371756049,0.1043734258926103
2000-01-01 00:00:24.072222222,24.072222222222223,0.2454669562782514,-0.0504832890815939
2000-01-01 00:00:24.091666666,24.09166666666667,0.4589005753808979,0.3366584983539167
2000-01-01 00:00:24.111111111,24.11111111111111,0.3216932488149109,0.956085358250734
2000-01-01 00:00:24.130555555,24.130555555555556,0.1082596297122644,1.3432271456862448
2000-01-01 00:00:24.150000000,24.15,0.0015428201609412,0.4140868558410189
2000-01-01 00:00:24.169444444,24.169444444444444,-0.0746834723757182,0.1043734258926103
2000-01-01 00:00:24.188888888,24.18888888888889,-0.0594382138683863,0.1043734258926103
2000-01-01 00:00:24.208333333,24.208333333333332,0.1539954052342601,0.6463719283023254
2000-01-01 00:00:24.227777777,24.227777777777774,4.224479426691874,-0.5150534340042069
2000-01-01 00:00:24.247222222,24.247222222222224,0.8552772965715271,1.2657987881991426
2000-01-01 00:00:24.266666666,24.266666666666666,-0.1509097649123777,0.5689435708152232
2000-01-01 00:00:24.286111111,24.28611111111111,-0.3033623499856966,0.4915152133281211
2000-01-01 00:00:24.305555555,24.305555555555557,-0.3643433840150241,0.3366584983539167
2000-01-01 00:00:24.325000000,24.325,-0.3490981255076922,0.6463719283023254
2000-01-01 00:00:24.344444444,24.344444444444445,-0.3186076084930285,1.1109420732249382
2000-01-01 00:00:24.363888888,24.36388888888889,-0.2881170914783647,1.3432271456862448
2000-01-01 00:00:24.383333333,24.383333333333333,-0.379588642522356,1.1883704307120404
2000-01-01 00:00:24.402777777,24.40277777777778,-0.3338528670003604,0.4915152133281211
2000-01-01 00:00:24.422222222,24.422222222222224,-0.2576265744637009,0.1043734258926103
2000-01-01 00:00:24.441666666,24.441666666666663,-0.0594382138683863,0.7238002857894276
2000-01-01 00:00:24.461111111,24.461111111111112,0.169240663741592,1.2657987881991426
2000-01-01 00:00:24.480555555,24.48055555555555,0.3979195413515703,0.8012286432765297
2000-01-01 00:00:24.500000000,24.5,0.5046363509028936,0.5689435708152232
2000-01-01 00:00:24.519444444,24.51944444444445,0.5046363509028936,0.1818017833797124
2000-01-01 00:00:24.538888888,24.538888888888888,0.3979195413515703,0.2592301408668146
2000-01-01 00:00:24.558333333,24.558333333333337,0.1844859222489238,0.6463719283023254
2000-01-01 00:00:24.577777777,24.57777777777778,0.0472785956829368,1.3432271456862448
2000-01-01 00:00:24.597222222,24.59722222222222,-0.0594382138683863,1.1883704307120404
2000-01-01 00:00:24.616666666,24.616666666666667,-0.105173989390382,0.7238002857894276
2000-01-01 00:00:24.636111111,24.636111111111113,-0.105173989390382,0.5689435708152232
2000-01-01 00:00:24.655555555,24.655555555555555,-0.1204192478977139,0.3366584983539167
2000-01-01 00:00:24.675000000,24.675,-0.0746834723757182,0.7238002857894276
2000-01-01 00:00:24.694444444,24.694444444444446,-0.0289476968537225,0.956085358250734
2000-01-01 00:00:24.713888888,24.71388888888889,-0.0746834723757182,1.033513715737836
2000-01-01 00:00:24.733333333,24.733333333333334,-0.0289476968537225,0.8786570007636318
2000-01-01 00:00:24.752777777,24.752777777777776,-0.1204192478977139,0.4915152133281211
2000-01-01 00:00:24.772222222,24.772222222222226,-0.105173989390382,0.2592301408668146
2000-01-01 00:00:24.791666666,24.791666666666668,-0.0899287308830501,0.4915152133281211
2000-01-01 00:00:24.811111111,24.81111111111111,-0.0746834723757182,1.1883704307120404
2000-01-01 00:00:24.830555555,24.830555555555556,-0.0441929553610544,1.1883704307120404
2000-01-01 00:00:24.850000000,24.85,-0.0899287308830501,0.8786570007636318
2000-01-01 00:00:24.869444444,24.869444444444444,-0.0899287308830501,0.3366584983539167
2000-01-01 00:00:24.888888888,24.88888888888889,-0.0289476968537225,0.2592301408668146
2000-01-01 00:00:24.908333333,24.908333333333335,0.1539954052342601,1.033513715737836
2000-01-01 00:00:24.927777777,24.927777777777777,0.5656173849322211,1.2657987881991426
2000-01-01 00:00:24.947222222,24.947222222222223,0.3521837658295746,0.8786570007636318
2000-01-01 00:00:24.966666666,24.96666666666667,0.1844859222489238,0.3366584983539167
2000-01-01 00:00:24.986111111,24.98611111111111,-0.105173989390382,0.1043734258926103
2000-01-01 00:00:25.005555555,25.005555555555556,-0.1509097649123777,-0.1279116465686961
2000-01-01 00:00:25.025000000,25.025,-0.2271360574490371,0.4915152133281211
2000-01-01 00:00:25.044444444,25.044444444444444,-0.3338528670003604,1.1883704307120404
2000-01-01 00:00:25.063888888,25.06388888888889,2.791425127002677,0.8012286432765297
2000-01-01 00:00:25.083333333,25.083333333333332,0.9010130720935228,-0.7473385064655134
2000-01-01 00:00:25.102777777,25.102777777777774,0.1235048882195963,0.2592301408668146
2000-01-01 00:00:25.122222222,25.122222222222224,-0.1661550234197095,0.2592301408668146
2000-01-01 00:00:25.141666666,25.141666666666666,-0.5625317446103387,0.1818017833797124
2000-01-01 00:00:25.161111111,25.16111111111111,-0.532041227595675,0.8012286432765297
2000-01-01 00:00:25.180555555,25.180555555555557,-0.5472864861030068,0.7238002857894276
2000-01-01 00:00:25.200000000,25.2,-0.516795969088343,0.5689435708152232
2000-01-01 00:00:25.219444444,25.219444444444445,-0.532041227595675,0.4140868558410189
2000-01-01 00:00:25.238888888,25.23888888888889,-0.5472864861030068,-0.2053400040557982
2000-01-01 00:00:25.258333333,25.258333333333333,-0.5015507105810112,0.1043734258926103
2000-01-01 00:00:25.277777777,25.27777777777778,-0.3948339010296879,0.8012286432765297
2000-01-01 00:00:25.297222222,25.297222222222224,-0.2728718329710328,0.8012286432765297
2000-01-01 00:00:25.316666666,25.316666666666663,-0.0899287308830501,0.4140868558410189
2000-01-01 00:00:25.336111111,25.336111111111112,0.1082596297122644,-0.1279116465686961
2000-01-01 00:00:25.355555555,25.35555555555555,0.1844859222489238,-0.5150534340042069
2000-01-01 00:00:25.375000000,25.375,0.1539954052342601,0.3366584983539167
2000-01-01 00:00:25.394444444,25.39444444444445,0.0777691126976006,0.956085358250734
2000-01-01 00:00:25.413888888,25.413888888888888,-0.1661550234197095,0.7238002857894276
2000-01-01 00:00:25.433333333,25.433333333333337,-0.1814002819270414,0.5689435708152232
2000-01-01 00:00:25.452777777,25.45277777777778,-0.3186076084930285,-0.0504832890815939
2000-01-01 00:00:25.472222222,25.47222222222222,-0.242381315956369,0.1818017833797124
2000-01-01 00:00:25.491666666,25.491666666666667,-0.1966455404343733,0.956085358250734
2000-01-01 00:00:25.511111111,25.511111111111113,-0.1356645064050458,1.3432271456862448
2000-01-01 00:00:25.530555555,25.530555555555555,-0.0289476968537225,0.8012286432765297
2000-01-01 00:00:25.550000000,25.55,-0.0441929553610544,0.6463719283023254
2000-01-01 00:00:25.569444444,25.569444444444446,-0.0899287308830501,0.0269450684055081
2000-01-01 00:00:25.588888888,25.58888888888889,-0.105173989390382,0.1818017833797124
2000-01-01 00:00:25.608333333,25.608333333333334,-0.0746834723757182,0.956085358250734
2000-01-01 00:00:25.627777777,25.627777777777776,-0.0594382138683863,0.956085358250734
2000-01-01 00:00:25.647222222,25.647222222222226,-0.0594382138683863,0.4140868558410189
2000-01-01 00:00:25.666666666,25.666666666666668,-0.0746834723757182,0.3366584983539167
2000-01-01 00:00:25.686111111,25.68611111111111,-0.0746834723757182,-0.2053400040557982
2000-01-01 00:00:25.705555555,25.705555555555556,-0.0899287308830501,0.1818017833797124
2000-01-01 00:00:25.725000000,25.725,0.0625238541902687,0.8786570007636318
2000-01-01 00:00:25.744444444,25.744444444444444,0.5046363509028936,1.033513715737836
2000-01-01 00:00:25.763888888,25.76388888888889,0.4131647998589022,0.5689435708152232
2000-01-01 00:00:25.783333333,25.783333333333335,0.3369385073222428,0.3366584983539167
2000-01-01 00:00:25.802777777,25.802777777777777,0.016788078668273,0.0269450684055081
2000-01-01 00:00:25.822222222,25.822222222222223,-0.0746834723757182,0.0269450684055081
2000-01-01 00:00:25.841666666,25.84166666666667,-0.0594382138683863,0.6463719283023254
2000-01-01 00:00:25.861111111,25.86111111111111,-0.1356645064050458,0.8786570007636318
2000-01-01 00:00:25.880555555,25.880555555555556,2.212105303724065,0.7238002857894276
2000-01-01 00:00:25.900000000,25.9,1.5870497049234578,-0.6699101489784112
2000-01-01 00:00:25.919444444,25.919444444444444,0.3674290243369065,0.1818017833797124
2000-01-01 00:00:25.938888888,25.93888888888889,-0.1814002819270414,0.1818017833797124
2000-01-01 00:00:25.958333333,25.958333333333332,-0.2576265744637009,0.7238002857894276
2000-01-01 00:00:25.977777777,25.977777777777774,-0.1814002819270414,0.8786570007636318
2000-01-01 00:00:25.997222222,25.997222222222224,-0.1966455404343733,0.8012286432765297
2000-01-01 00:00:26.016666666,26.016666666666666,-0.1966455404343733,0.5689435708152232
2000-01-01 00:00:26.036111111,26.03611111111111,-0.1814002819270414,0.1043734258926103
2000-01-01 00:00:26.055555555,26.055555555555557,-0.1661550234197095,0.1818017833797124
2000-01-01 00:00:26.075000000,26.075,-0.0594382138683863,0.5689435708152232
2000-01-01 00:00:26.094444444,26.094444444444445,0.0472785956829368,0.8786570007636318
2000-01-01 00:00:26.113888888,26.11388888888889,0.1539954052342601,0.8012286432765297
2000-01-01 00:00:26.133333333,26.133333333333333,0.2912027318002471,0.8012286432765297
2000-01-01 00:00:26.152777777,26.15277777777778,0.5198816094102254,0.1818017833797124
2000-01-01 00:00:26.172222222,26.172222222222224,0.6113531604542168,-0.5150534340042069
2000-01-01 00:00:26.191666666,26.191666666666663,0.7790510040348676,0.4140868558410189
2000-01-01 00:00:26.211111111,26.211111111111112,0.6723341944835444,1.033513715737836
2000-01-01 00:00:26.230555555,26.23055555555555,0.4284100583662341,0.956085358250734
2000-01-01 00:00:26.250000000,26.25,0.2454669562782514,0.4915152133281211
2000-01-01 00:00:26.269444444,26.26944444444445,0.169240663741592,0.0269450684055081
2000-01-01 00:00:26.288888888,26.288888888888888,0.1539954052342601,0.0269450684055081
2000-01-01 00:00:26.308333333,26.308333333333337,0.1539954052342601,0.6463719283023254
2000-01-01 00:00:26.327777777,26.32777777777778,0.1844859222489238,0.956085358250734
2000-01-01 00:00:26.347222222,26.34722222222222,0.2302216977709195,0.4140868558410189
2000-01-01 00:00:26.366666666,26.366666666666667,0.2454669562782514,0.3366584983539167
2000-01-01 00:00:26.386111111,26.386111111111113,0.2454669562782514,-0.1279116465686961
2000-01-01 00:00:26.405555555,26.405555555555555,0.1844859222489238,-0.1279116465686961
2000-01-01 00:00:26.425000000,26.425,0.2149764392635876,0.5689435708152232
2000-01-01 00:00:26.444444444,26.444444444444446,0.2607122147855833,0.7238002857894276
2000-01-01 00:00:26.463888888,26.46388888888889,0.2302216977709195,0.3366584983539167
2000-01-01 00:00:26.483333333,26.483333333333334,0.2149764392635876,0.3366584983539167
2000-01-01 00:00:26.502777777,26.502777777777776,0.1082596297122644,-0.0504832890815939
2000-01-01 00:00:26.522222222,26.522222222222226,0.1235048882195963,-0.0504832890815939
2000-01-01 00:00:26.541666666,26.541666666666668,0.1387501467269282,0.2592301408668146
2000-01-01 00:00:26.561111111,26.56111111111111,0.1844859222489238,0.7238002857894276
2000-01-01 00:00:26.580555555,26.580555555555556,0.3216932488149109,0.5689435708152232
2000-01-01 00:00:26.600000000,26.6,0.7333152285128719,0.4140868558410189
2000-01-01 00:00:26.619444444,26.619444444444444,0.5961079019468849,-0.2053400040557982
2000-01-01 00:00:26.638888888,26.63888888888889,0.4741458338882298,-0.5924817914913091
2000-01-01 00:00:26.658333333,26.658333333333335,0.1235048882195963,-0.2827683615429004
2000-01-01 00:00:26.677777777,26.677777777777777,0.1997311807562558,0.3366584983539167
2000-01-01 00:00:26.697222222,26.697222222222223,0.1387501467269282,0.5689435708152232
2000-01-01 00:00:26.716666666,26.71666666666667,-0.105173989390382,0.1818017833797124
2000-01-01 00:00:26.736111111,26.73611111111111,2.6084820249146943,-0.2053400040557982
2000-01-01 00:00:26.755555555,26.755555555555556,1.6480307389527853,-1.986192226259148
2000-01-01 00:00:26.775000000,26.775,0.5046363509028936,-0.3601967190300025
2000-01-01 00:00:26.794444444,26.794444444444444,0.0625238541902687,0.4915152133281211
2000-01-01 00:00:26.813888888,26.81388888888889,-0.0746834723757182,0.4140868558410189
2000-01-01 00:00:26.833333333,26.833333333333332,-0.1509097649123777,0.1818017833797124
2000-01-01 00:00:26.852777777,26.852777777777774,-0.0899287308830501,-0.1279116465686961
2000-01-01 00:00:26.872222222,26.872222222222224,-0.105173989390382,-0.5150534340042069
2000-01-01 00:00:26.891666666,26.891666666666666,-0.0594382138683863,-0.5150534340042069
2000-01-01 00:00:26.911111111,26.91111111111111,0.0320333371756049,0.3366584983539167
2000-01-01 00:00:26.930555555,26.930555555555557,0.0930143712049325,0.4140868558410189
2000-01-01 00:00:26.950000000,26.95,0.1844859222489238,0.1818017833797124
2000-01-01 00:00:26.969444444,26.969444444444445,0.2759574732929152,-0.2053400040557982
2000-01-01 00:00:26.988888888,26.98888888888889,0.443655316873566,-0.5150534340042069
2000-01-01 00:00:27.008333333,27.008333333333333,0.6875794529908763,-0.3601967190300025
2000-01-01 00:00:27.027777777,27.02777777777778,0.8400320380641951,-0.1279116465686961
